#  WAVELENGTH	        FLUX	
#  (ANGSTROM)	(ERG/CM2/S/A)	
############	############	
827.76843764078  1.80448E-25 
844.40658323736  4.07166E-25 
852.85064906973  9.00205E-25 
861.37915556043  1.95151E-24 
869.99294711603  4.15045E-24 
878.69287658719  8.67434E-24 
887.47980535306  1.78111E-23 
896.3546034066  3.59328E-23 
914.37133093507  5.58058E-18 
923.51504424442  1.89249E-17 
932.75019468686  2.76248E-17 
942.07769663373  5.67105E-17 
951.49847360007  1.11265E-16 
961.01345833607  2.00209E-16 
970.62359291943  2.31513E-16 
980.32982884862  6.19365E-16 
990.13312713711  1.07205E-15 
1000.0344584085   1.5948E-15 
1010.0348029926  2.17008E-15 
1020.1351510225  4.72176E-15 
1030.3365025327    9.705E-15 
1040.639867558  1.60128E-14 
1051.0462662336  2.07525E-14 
1061.556728896  4.55109E-14 
1072.1722961849  6.81302E-14 
1082.8940191468  1.10191E-13 
1093.7229593382  1.50227E-13 
1104.6601889316  2.68419E-13 
1115.7067908209  6.16133E-13 
1126.8638587291  1.09171E-12 
1138.1324973164  1.64709E-12 
1149.5138222896  2.34365E-12 
1161.0089605125  3.14992E-12 
1172.6190501176  4.54464E-12 
1184.3452406188 5.325935E-12 
1196.188693025  4.99469E-12 
1208.1505799552  1.81392E-12 
1220.2320857548  1.09457E-11 
1232.4344066123  2.02864E-11 
1244.7587506785 5.567625E-11 
1257.2063381852  1.02793E-10 
1269.7784015671   1.5583E-10 
1282.4761855828 2.245885E-10 
1295.3009474386  3.44471E-10 
1308.253956913   5.0548E-10 
1321.3364964821   6.4575E-10 
1334.5498614469 9.806635E-10 
1347.8953600614   1.59341E-9 
1361.374313662   2.00373E-9 
1374.9880567986   2.89605E-9 
1388.7379373666   3.98001E-9 
1402.6253167403   6.95619E-9 
1416.6515699077   9.27789E-9 
1430.8180856068 1.5779852941176E-8 
1445.1262664628 1.9747338461538E-8 
1459.5775291275   3.19696E-8 
1474.1733044187   4.11266E-8 
1488.9150374629   7.25908E-8 
1503.8041878376 9.5924304545455E-8 
1518.8422297159   1.65668E-7 
1534.0306520131   3.57435E-7 
1549.3709585332   5.22322E-7 
1564.8646681186  9.124955E-7 
1580.5133147997  1.289915E-6 
1596.3184479477   1.42254E-6 
1612.2816324272  1.590355E-6 
1628.4044487515    2.3804E-6 
1644.688493239  3.288005E-6 
1661.1353781714 5.2636254545455E-6 
1677.7467319531   9.47152E-6 
1694.5241992726   1.58093E-5 
1711.4694412654  2.353475E-5 
1728.584135678   4.11128E-5 
1745.8699770348   4.76634E-5 
1763.3286768051  6.870115E-5 
1780.9619635732 0.0001266415 
1798.7715832089 0.0002084015 
1816.759299041  0.000279079 
1834.9268920314 0.0003292325 
1853.2761609517  0.000451625 
1871.8089225613  0.000652699 
1890.5270117869  0.001015907 
1909.4322819047  0.001531865 
1928.5266047238   0.00158338 
1947.811870771   0.00363394 
1967.2899894787 0.0058357394117647 
1986.9628893735 0.0059766019047619 
2006.8325182673  0.007261845 
2026.9008434499   0.00867094 
2047.1698518844     0.010942 
2067.6415504033 0.0123282355 
2088.3179659073    0.0286957 
2109.2011455664    0.0260326 
2130.293157022    0.0404338 
2151.5960885923   0.04512715 
2173.1120494782    0.0451753 
2194.843169973 0.11929413333333 
2216.7916016727   0.32113355 
2238.9595176894    0.6044595 
2261.3491128663   0.44410775 
2283.962603995 0.62301153333333 
2306.8022300349     1.653187 
2329.8702523353     2.203165 
2353.1689548586 0.80828833333333 
2376.7006444072     3.491905 
2400.4676508513     6.312165 
2424.4723273598 16.896683333333 
2448.7170506334     22.01592 
2473.2042211397 7.2008933333333 
2497.9362633511 8.3590160869565 
2522.9156259846 53.469818888889 
2548.1447822445     125.7358 
2573.6262300669 118.96693333333 
2599.3624923676 172.57266666667 
2625.3561172913     775.9725 
2651.6096784642 1185.1213333333 
2678.1257752488    1006.8055 
2704.9070330013 892.92133333333 
2731.9561033313 683.73933333333 
2759.2756643647 1303.6126666667 
2786.8684210083     312.5445 
2814.7371052184 1179.6896666667 
2842.8844762706      274.777 
2871.3133210333      3450.83 
2900.0264542436      8263.24 
2929.026718786      7669.02 
2958.3169859739      7269.04 
2987.9001558336     6712.115 
3017.779157392      9556.84 
3047.9569489659     14331.35 
3078.4365184556      22674.6 
3109.2208836401     31782.45 
3140.3130924765      41134.2 
3171.7162234013      41041.6 
3203.4333856353      38776.1 
3235.4677194916      55722.1 
3267.8223966866     83428.65 
3300.5006206534      74289.2 
3333.50562686      66577.9 
3366.8406831286     51934.55 
3400.5090899598     80730.05 
3434.5141808594      84015.3 
3468.859322668    100582.65 
3503.5479158947    109328.75 
3538.5833950537      95231.7 
3573.9692290042        73659 
3609.7089212942     139843.8 
3645.8060105072 192252.33333333 
3682.2640706123       195339 
3719.0867113184       105882 
3756.2775784316     171495.5 
3793.8403542159     109134.8 
3831.778757758      88179.8 
3870.0965453356       167531 
3908.797510789    116656.65 
3947.8854858969     95479.05 
3987.3643407558     337317.5 
4027.2379841634     389635.5 
4067.510364005     418210.5 
4108.1854676451     426324.5 
4149.2673223215 374962.66666667 
4190.7599955447       455245 
4232.6675955002     505773.5 
4274.9942714552       410428 
4317.7442141697       604923 
4360.9216563114       617253 
4404.5308728746       681418 
4448.5761816033 808443.33333333 
4493.0619434193       935348 
4537.9925628535       950183 
4583.3724884821      1004174 
4629.2062133669 1050993.3333333 
4675.4982755006      1069880 
4722.2532582556      1145825 
4769.4757908381 1195763.3333333 
4817.1705487465      1201960 
4865.342254234 1201436.6666667 
4913.9956767763      1266325 
4963.1356335441 1216013.3333333 
5012.7669898795      1237605 
5062.8946597783 1256503.3333333 
5113.5236063761      1185530 
5164.6588424398 1197616.6666667 
5216.3054308642      1332105 
5268.4684851729 1367803.3333333 
5321.1531700246 1431713.3333333 
5374.3647017249      1424755 
5428.1083487421 1478723.3333333 
5482.3894322295 1483266.6666667 
5537.2133265518 1531126.6666667 
5592.5854598173      1558695 
5648.5113144155      1562020 
5704.9964275597      1589600 
5762.0463918353      1615160 
5819.6668557536      1671460 
5877.8635243112 1595156.6666667 
5936.6421595543 1672533.3333333 
5996.0085811498 1677266.6666667 
6055.9686669613 1666746.6666667 
6116.5283536309 1586913.3333333 
6177.6936371672 1625663.3333333 
6239.4705735389      1584360 
6301.8652792743 1622323.3333333 
6364.883932067 1634536.6666667 
6428.5327713877    1634272.5 
6492.8180991016 1650146.6666667 
6557.7462800926      1641980 
6623.3237428935 1658703.3333333 
6689.5569803225    1673227.5 
6756.4525501257 1673466.6666667 
6824.0170756269      1676105 
6892.2572463832      1638180 
6961.179818847      1598780 
7030.7916170355      1608520 
7101.0995332059    1552322.5 
7172.1105285379 1558036.6666667 
7243.8316338233      1563585 
7316.2699501615 1572333.3333333 
7389.4326496631      1569710 
7463.3269761598      1583265 
7537.9602459214      1599855 
7613.3398483806      1587720 
7689.4732468644    1579252.5 
7766.367979333      1595370 
7844.0316591264      1508245 
7922.4719757176    1456382.5 
8001.6966954748      1473040 
8081.7136624296      1411960 
8162.5307990539      1425210 
8244.1561070444      1437625 
8326.5976681148      1398605 
8409.863644796      1415324 
8493.9622812439      1315465 
8578.9019040564    1422362.5 
8664.6909230969      1361730 
8751.3378323279      1413760 
8838.8512106512    1419832.5 
8927.2397227577      1392668 
9016.5121199853      1391565 
9106.6772411851      1290800 
9197.744013597    1236812.5 
9289.721453733      1265244 
9382.6186682703      1213292 
9476.444854953      1236344 
9571.2093035025    1233172.5 
9666.9213965375      1216548 
9763.5906105029      1225860 
9861.226516608      1237908 
9959.838781774      1235968 
10059.437169592      1223455 
10160.031541288      1209370 
10261.631856701      1201990 
10364.248175268      1189370 
10467.89065702      1180485 
10572.56956359      1159150 
10678.295259226      1140780 
10785.078211819      1111090 
10892.928993937      1029272 
11001.858283876     994031.5 
11111.876866715      1014490 
11222.995635382 1016663.3333333 
11335.225591736      1000053 
11448.577847653      1016100 
11563.06362613       998517 
11678.694262391      1001454 
11795.481205015       983216 
11913.436017065 975761.33333333 
12032.570377236     966932.5 
12152.896081008     966721.5 
12274.425041818 954472.33333333 
12397.169292236       944370 
12521.140985159       934105 
12646.35239501       924128 
12772.81591896 909359.66666667 
12900.54407815 900729.33333333 
13029.549518932     893877.5 
13159.845014121 880514.66666667 
13291.443464262       875157 
13424.357898905 872018.33333333 
13558.601477894       853895 
13694.187492673 851532.66666667 
13831.129367599       839840 
13969.440661275       819491 
14109.135067888       772781 
14250.226418567 774854.33333333 
14392.728682753 772361.33333333 
14536.65596958 753340.96666667 
14682.022529276       748153 
14828.842754569 757877.33333333 
14977.131182115       744330 
15126.902493936 748731.66666667 
15278.171518875 750762.33333333 
15430.953234064 741111.66666667 
15585.262766404       739333 
15741.115394068 710626.33333333 
15898.526548009 718834.42857143 
16057.511813489       710019 
16218.086931624     706801.5 
16380.26780094       675336 
16544.07047895       676477 
16709.511183739       649268 
16876.606295577       645471 
17045.372358532       619920 
17215.826082118       593736 
17387.984342939       577559 
17561.864186368       563277 
17737.482828232     546962.5 
17914.857656514     528295.5 
18094.006233079     506929.5 
18274.94629541     488979.5 
18457.695758364       476508 
18642.272715948       458246 
18828.695443107     441916.5 
19016.982397539       432037 
19207.152221514     415464.5 
19399.223743729     398304.5 
19593.215981166       382715 
19789.148140978       369325 
19987.039622388       361097 
20186.910018612     345620.5 
20388.779118798       335928 
20592.666909986       322692 
20798.593579086     312079.5 
21006.579514877       303609 
21216.645310025     293742.5 
21428.811763126     284529.5 
21643.099880757 271371.33333333 
21859.530879564     261394.5 
22078.12618836       253892 
22298.907450244       245554 
22521.896524746     237596.5 
22747.115489993 218695.33333333 
22974.586644893     207108.5 
23204.332511342       183581 
23436.375836456       175969 
23670.73959482     164064.5 
23907.446990769       165946 
24146.521460676       155001 
24387.986675283       147211 
24631.866542036       146492 
24878.185207456     145784.5 
25126.967059531       138043 
25378.236730126       135453 
25632.019097427 132737.66666667 
25888.339288402       130188 
26147.222681286 126357.66666667 
26408.694908098 122115.33333333 
26672.781857179       121327 
26939.509675751       117180 
27208.904772509       114066 
27480.993820234 110735.33333333 
27755.803758436     107874.5 
28033.361796021 104499.33333333 
28313.695413981 101805.33333333 
28596.832368121      98241.1 
28882.800691802 95106.566666667 
29171.62869872 91329.566666667 
29463.344985707      88401.2 
29757.978435564 85349.833333333 
30055.55821992 82539.533333333 
30356.113802119 79353.266666667 
30659.67494014 76590.466666667 
30966.271689541 74103.833333333 
31275.934406437 71298.933333333 
31588.693750501 68994.533333333 
31904.580688006     66863.02 
32223.626494886      63917.7 
32545.862759835      61912.8 
32871.321387434     59597.25 
33200.034601308     56971.65 
33532.034947321      55350.7 
33867.355296794     53175.85 
34206.028849762     51103.55 
34548.08913826      49590.8 
34893.570029642     47995.55 
35242.505729939      45929.4 
35594.930787238     43892.45 
35950.880095111      42328.9 
36310.388896062      40886.9 
36673.492785022      39585.2 
37040.227712872      37888.4 
37410.629990001      36397.8 
37784.736289901        35109 
38162.5836528        33819 
38544.209489328      32484.8 
38929.651584221     31283.05 
39318.948100064      30100.5 
39712.137581064      28794.8 
40109.258956875     27791.85 
40510.351546444     26746.75 
40915.455061908     25822.75 
41324.609612527     24845.35 
41737.855708653     23937.75 
42155.234265739     23146.45 
42576.786608396      21740.5 
43002.55447448      20060.5 
43432.580019225     18619.35 
43866.905819417      17062.4 
44305.574877612     15487.55 
44748.630626388        15119 
45196.116932652     14134.75 
45648.078101978 13538.766666667 
46104.558882998     12992.95 
46565.604471828      12704.3 
47031.260516546 12289.833333333 
47501.573121712        11922 
47976.588852929      11608.7 
48456.354741458      11264.3 
48940.918288873      10860.6 
49430.327471761 10549.666666667 
49924.630746479     10208.45 
50423.877053944 9873.7633333333 
50928.115824483      9541.18 
51437.396982728 9323.6033333333 
51951.770952555     8978.945 
52471.288662081 8822.7933333333 
52996.001548702 8432.5833333333 
53525.961564189      8234.76 
54061.221179831 7998.0533333333 
54601.833391629 7692.0033333333 
55147.851725545     7554.275 
55699.330242801 7359.2966666667 
56256.323545229 7085.6266666667 
56818.886780681       6848.8 
57387.075648488 6651.2533333333 
57960.946404973      6430.56 
58540.555869022      6197.47 
59125.961427713 6006.6333333333 
59717.22104199      5824.06 
60314.39325241 5601.1133333333 
60917.537184934      5415.95 
61526.712556783 5268.5833333333 
62141.979682351      5072.23 
62763.399479174 4905.4833333333 
63391.033473966 4746.1366666667 
64024.943808706 4555.3842857143 
64665.193246793      4413.12 
65311.845179261      4268.09 
65964.963631053     4079.785 
66624.613267364      3950.75 
67290.859400038       3816.6 
67963.767994038     3653.675 
68643.405673978      3532.93 
69329.839730718     3419.105 
70023.138128025      3273.12 
70723.369509305     3135.065 
71430.603204399      3034.08 
72144.909236443     2938.635 
72866.358328807      2816.18 
73595.021912095     2699.515 
74330.972131216     2587.585 
75074.281852528      2470.97 
75825.024671053      2374.66 
76583.274917764      2277.35 
77349.107666942      2157.49 
78122.598743611      2053.38 
78903.824731047     1964.095 
79692.862978358      1886.11 
80489.791608141     1819.275 
81294.689524223       1764.9 
82107.636419465      1706.79 
82928.712783659      1645.46 
83757.999911496     1585.405 
84595.579910611 1514.9333333333 
85441.535709717      1446.49 
86295.951066814     1391.765 
87158.910577482      1346.01 
88030.499683257      1298.25 
88910.80468009      1254.84 
89799.912726891       1205.3 
90697.91185416      1155.65 
91604.890972701      1120.57 
92520.939882428 1077.3533333333 
93446.149281253     1035.305 
94380.610774065     1004.855 
95324.416881806      967.331 
96277.661050624     930.8075 
97240.43766113      895.564 
98212.842037741     862.2855 
99194.970458119      836.028 
100186.9201627       817.51 
199060.83304441      53.0663 
399467.9878358       3.3482 
594753.39981818      0.65841 
793700.71765891     0.206801 
997811.18987739    0.0840711 
1193529.3359837    0.0402579 
1399507.0114645     0.021587 
