#  WAVELENGTH	        FLUX	
#  (ANGSTROM)	(ERG/CM2/S/A)	
############	############	
420.78034537403  1.89569E-24 
429.23803031605  7.59389E-24 
437.8657147254  4.69379E-23 
446.66681559138  2.26482E-22 
455.64481858477  8.77786E-22 
469.4513122327  3.70864E-21 
478.88728360858  1.46971E-20 
488.51291800911  5.48902E-20 
498.3320276611  1.93639E-19 
503.31534793771  5.34131E-19 
508.34850141708  1.22494E-18 
518.56630629557  3.07362E-18 
528.98948905211  9.37172E-18 
539.62217778206  2.69034E-17 
545.01839955988  7.50881E-17 
555.97326939103  2.00246E-16 
567.14833210579  5.14528E-16 
578.54801358112  1.26223E-15 
584.33349371693  3.06145E-15 
596.07859694064  7.11497E-15 
608.05977673914  1.60523E-14 
614.14037450653  3.51818E-14 
626.48459603412  7.50518E-14 
639.0769364144  1.56082E-13 
645.46770577855  3.16809E-13 
651.92238283633  5.48707E-13 
658.44160666469  8.76431E-13 
671.67628295866  1.68089E-12 
678.39304578824  3.15684E-12 
692.02874600859  5.81205E-12 
698.94903346867  1.04827E-11 
712.99790904139  1.96898E-11 
720.12788813181  3.42531E-11 
734.60245868325  5.55872E-11 
741.94848327009  9.37643E-11 
749.36796810279  1.55755E-10 
764.43026426165  2.54971E-10 
772.07456690427  4.11495E-10 
779.79531257331  6.55247E-10 
787.59326569905   1.02518E-9 
803.4238903396   1.59552E-9 
811.45812924299   2.44865E-9 
819.57271053542    3.7111E-9 
827.76843764078   5.56214E-9 
844.40658323736   8.24714E-9 
852.85064906973   1.21013E-8 
861.37915556043   1.75807E-8 
869.99294711603   2.52656E-8 
878.69287658719   3.60509E-8 
887.47980535306   5.09299E-8 
896.3546034066   7.11995E-8 
914.37133093507  0.000132625 
923.51504424442  0.000438863 
932.75019468686  0.000605716 
942.07769663373  0.000866076 
951.49847360007    0.0012559 
961.01345833607   0.00173355 
970.62359291943   0.00231224 
980.32982884862   0.00315499 
990.13312713711   0.00415839 
1000.0344584085   0.00577838 
1010.0348029926   0.00764705 
1020.1351510225   0.00982537 
1030.3365025327    0.0131747 
1040.639867558    0.0173202 
1051.0462662336    0.0225211 
1061.556728896    0.0286468 
1072.1722961849    0.0370822 
1082.8940191468    0.0475897 
1093.7229593382    0.0597226 
1104.6601889316     0.444415 
1115.7067908209      1.04358 
1126.8638587291      1.47344 
1138.1324973164      1.86755 
1149.5138222896      2.00765 
1161.0089605125      2.62305 
1172.6190501176      2.81328 
1184.3452406188     2.330325 
1196.188693025     0.933482 
1208.1505799552     0.421562 
1220.2320857548      1.19861 
1232.4344066123      3.03834 
1244.7587506785    11.177875 
1257.2063381852      19.1731 
1269.7784015671      34.0246 
1282.4761855828      68.4044 
1295.3009474386      72.8496 
1308.253956913      129.263 
1321.3364964821      171.412 
1334.5498614469     244.2925 
1347.8953600614      312.809 
1361.374313662      372.015 
1374.9880567986     467.2505 
1388.7379373666      614.724 
1402.6253167403      745.149 
1416.6515699077      906.156 
1430.8180856068 1029.6164705882 
1445.1262664628 1352.6446153846 
1459.5775291275      1484.51 
1474.1733044187      1834.06 
1488.9150374629      2302.33 
1503.8041878376 2698.3804545455 
1518.8422297159      3223.94 
1534.0306520131      6043.28 
1549.3709585332      7486.09 
1564.8646681186      8483.06 
1580.5133147997     13292.75 
1596.3184479477      14766.3 
1612.2816324272      14753.3 
1628.4044487515      17990.8 
1644.688493239      18156.1 
1661.1353781714 22731.654545455 
1677.7467319531      79279.5 
1694.5241992726     132142.5 
1711.4694412654     286815.5 
1728.584135678     391344.5 
1745.8699770348       510783 
1763.3286768051     475781.5 
1780.9619635732     625731.5 
1798.7715832089       628695 
1816.759299041       565951 
1834.9268920314       570415 
1853.2761609517       771772 
1871.8089225613     825818.5 
1890.5270117869     953223.5 
1909.4322819047       915259 
1928.5266047238       842609 
1947.811870771 1349713.6363636 
1967.2899894787 1393887.6470588 
1986.9628893735 1345307.1428571 
2006.8325182673      1149505 
2026.9008434499      1528265 
2047.1698518844      1346905 
2067.6415504033    1942187.5 
2088.3179659073      1851515 
2109.2011455664      1886820 
2130.293157022      1652465 
2151.5960885923      1822250 
2173.1120494782      1843210 
2194.843169973      1982750 
2216.7916016727      1937145 
2238.9595176894      1802485 
2261.3491128663      1780810 
2283.962603995 2078973.3333333 
2306.8022300349      1920840 
2329.8702523353     924025.5 
2353.1689548586 1145292.6666667 
2376.7006444072     676658.5 
2400.4676508513       962337 
2424.4723273598      2232200 
2448.7170506334      2339335 
2473.2042211397      2088010 
2497.9362633511 2446756.5217391 
2522.9156259846 1816502.962963 
2548.1447822445      2095065 
2573.6262300669 1916973.3333333 
2599.3624923676 1442673.3333333 
2625.3561172913      3198110 
2651.6096784642      3637720 
2678.1257752488      3450310 
2704.9070330013      3174400 
2731.9561033313      2321930 
2759.2756643647 2692016.6666667 
2786.8684210083       880384 
2814.7371052184 3650506.6666667 
2842.8844762706 3797273.3333333 
2871.3133210333 4138143.3333333 
2900.0264542436      4987560 
2929.026718786      4689910 
2958.3169859739      5104570 
2987.9001558336      5328200 
3017.779157392      5462880 
3047.9569489659      5552475 
3078.4365184556      5908550 
3109.2208836401      5684440 
3140.3130924765      6025240 
3171.7162234013      5549820 
3203.4333856353      5762940 
3235.4677194916      6068700 
3267.8223966866      6377560 
3300.5006206534      6578285 
3333.50562686      6419100 
3366.8406831286      6414465 
3400.5090899598      6831495 
3434.5141808594      6909800 
3468.859322668      6782040 
3503.5479158947      7097285 
3538.5833950537      7266175 
3573.9692290042      7097260 
3609.7089212942      7276432 
3645.8060105072 7618843.3333333 
3682.2640706123      9674785 
3719.0867113184     17190300 
3756.2775784316     23237600 
3793.8403542159     25856600 
3831.778757758     30636600 
3870.0965453356     22123400 
3908.797510789     23499000 
3947.8854858969     21570750 
3987.3643407558     30781750 
4027.2379841634     30911750 
4067.510364005     29421300 
4108.1854676451     26651950 
4149.2673223215 29988566.666667 
4190.7599955447     29060200 
4232.6675955002     28713700 
4274.9942714552     27443750 
4317.7442141697     23432950 
4360.9216563114     27628150 
4404.5308728746     26615750 
4448.5761816033 26696166.666667 
4493.0619434193     26631650 
4537.9925628535     26058950 
4583.3724884821     25852000 
4629.2062133669     25632000 
4675.4982755006     24611000 
4722.2532582556     25073250 
4769.4757908381 24430233.333333 
4817.1705487465     22523400 
4865.342254234     21145600 
4913.9956767763     22638800 
4963.1356335441 22019866.666667 
5012.7669898795     21720400 
5062.8946597783 21561466.666667 
5113.5236063761     20626900 
5164.6588424398     19962700 
5216.3054308642     19959900 
5268.4684851729 19354266.666667 
5321.1531700246 19162066.666667 
5374.3647017249     18776350 
5428.1083487421 18621766.666667 
5482.3894322295     18284400 
5537.2133265518     17963900 
5592.5854598173     17691750 
5648.5113144155 17282766.666667 
5704.9964275597 17076033.333333 
5762.0463918353 16719766.666667 
5819.6668557536 16356533.333333 
5877.8635243112 15909733.333333 
5936.6421595543 15640833.333333 
5996.0085811498 15260366.666667 
6055.9686669613 14950766.666667 
6116.5283536309     14401600 
6177.6936371672     14297100 
6239.4705735389 13894566.666667 
6301.8652792743     13631900 
6364.883932067 13350633.333333 
6428.5327713877     12975975 
6492.8180991016     12432300 
6557.7462800926     11401120 
6623.3237428935 12271333.333333 
6689.5569803225     11990100 
6756.4525501257 11725233.333333 
6824.0170756269     11439250 
6892.2572463832     11184900 
6961.179818847     10901275 
7030.7916170355     10673700 
7101.0995332059     10358050 
7172.1105285379     10122600 
7243.8316338233    9909152.5 
7316.2699501615      9704280 
7389.4326496631      9442510 
7463.3269761598    9207462.5 
7537.9602459214    9031002.5 
7613.3398483806      8810200 
7689.4732468644    8613772.5 
7766.367979333      8383740 
7844.0316591264    8176657.5 
7922.4719757176    7982302.5 
8001.6966954748    7805792.5 
8081.7136624296      7630265 
8162.5307990539      7402670 
8244.1561070444      7255390 
8326.5976681148    7014402.5 
8409.863644796      6953672 
8493.9622812439      6730635 
8578.9019040564    7131862.5 
8664.6909230969      6801212 
8751.3378323279    7154037.5 
8838.8512106512      6701110 
8927.2397227577      6687532 
9016.5121199853      6521335 
9106.6772411851      6523762 
9197.744013597      5967735 
9289.721453733      6213568 
9382.6186682703      5982126 
9476.444854953      5629402 
9571.2093035025    5668057.5 
9666.9213965375      5533828 
9763.5906105029      5405372 
9861.226516608      5236056 
9959.838781774      5058256 
10059.437169592      4829730 
10160.031541288      4841395 
10261.631856701      4709605 
10364.248175268      4589595 
10467.89065702      4433165 
10572.56956359 4281496.6666667 
10678.295259226      4145125 
10785.078211819      4037095 
10892.928993937      3774840 
11001.858283876      3863875 
11111.876866715      3757165 
11222.995635382 3614696.6666667 
11335.225591736      3504800 
11448.577847653      3444345 
11563.06362613 3303013.3333333 
11678.694262391      3206130 
11795.481205015      3114480 
11913.436017065      3046100 
12032.570377236      2951675 
12152.896081008      2891605 
12274.425041818      2801410 
12397.169292236      2724630 
12521.140985159 2632546.6666667 
12646.35239501      2567830 
12772.81591896 2420026.6666667 
12900.54407815 2405643.3333333 
13029.549518932      2337905 
13159.845014121 2268866.6666667 
13291.443464262      2207715 
13424.357898905 2144196.6666667 
13558.601477894      2070700 
13694.187492673 1993193.3333333 
13831.129367599      1947290 
13969.440661275 1894746.6666667 
14109.135067888 1831576.6666667 
14250.226418567 1772706.6666667 
14392.728682753 1700296.6666667 
14536.65596958 1658466.3333333 
14682.022529276      1602550 
14828.842754569      1553250 
14977.131182115 1496526.6666667 
15126.902493936 1457616.6666667 
15278.171518875 1407293.3333333 
15430.953234064 1380506.6666667 
15585.262766404 1346833.3333333 
15741.115394068      1307150 
15898.526548009 1303032.8571429 
16057.511813489      1216730 
16218.086931624      1229785 
16380.26780094      1141250 
16544.07047895      1159190 
16709.511183739      1080230 
16876.606295577      1077030 
17045.372358532      1041430 
17215.826082118       970749 
17387.984342939     953509.5 
17561.864186368       926110 
17737.482828232       900773 
17914.857656514     866926.5 
18094.006233079     811409.5 
18274.94629541     801273.5 
18457.695758364       776828 
18642.272715948       735088 
18828.695443107       723278 
19016.982397539       701372 
19207.152221514       674497 
19399.223743729     634360.5 
19593.215981166       625932 
19789.148140978       604242 
19987.039622388     583273.5 
20186.910018612     561932.5 
20388.779118798       543023 
20592.666909986       523435 
20798.593579086       505639 
21006.579514877       487731 
21216.645310025     470900.5 
21428.811763126     456228.5 
21643.099880757 430225.33333333 
21859.530879564       419242 
22078.12618836     405298.5 
22298.907450244       392815 
22521.896524746       379269 
22747.115489993       364964 
22974.586644893       351060 
23204.332511342       340212 
23436.375836456 327084.66666667 
23670.73959482       314457 
23907.446990769       304526 
24146.521460676       293117 
24387.986675283       282297 
24631.866542036       272534 
24878.185207456       261440 
25126.967059531 253111.33333333 
25378.236730126     246719.5 
25632.019097427 235159.66666667 
25888.339288402       229988 
26147.222681286 215828.33333333 
26408.694908098 213060.33333333 
26672.781857179       201643 
26939.509675751       199204 
27208.904772509 191214.66666667 
27480.993820234 180713.66666667 
27755.803758436       177504 
28033.361796021 171674.33333333 
28313.695413981 164949.33333333 
28596.832368121       156253 
28882.800691802 152461.66666667 
29171.62869872       146749 
29463.344985707 141283.33333333 
29757.978435564 136005.66666667 
30055.55821992 129632.66666667 
30356.113802119 125732.66666667 
30659.67494014 121563.33333333 
30966.271689541 117097.33333333 
31275.934406437 113017.33333333 
31588.693750501 109124.33333333 
31904.580688006     105454.2 
32223.626494886     101120.6 
32545.862759835      97627.4 
32871.321387434      92927.1 
33200.034601308     89841.35 
33532.034947321      86754.5 
33867.355296794     83936.35 
34206.028849762     80429.05 
34548.08913826      77852.8 
34893.570029642      75373.1 
35242.505729939      72161.4 
35594.930787238      69191.2 
35950.880095111     66337.75 
36310.388896062      64012.3 
36673.492785022      62191.8 
37040.227712872     59750.15 
37410.629990001     56869.55 
37784.736289901     55125.55 
38162.5836528     53166.95 
38544.209489328      51212.5 
38929.651584221      48874.7 
39318.948100064      47447.7 
39712.137581064      45476.1 
40109.258956875     43219.45 
40510.351546444      42303.1 
40915.455061908      40789.9 
41324.609612527      38915.8 
41737.855708653     37845.35 
42155.234265739     36537.35 
42576.786608396      35247.8 
43002.55447448     34006.65 
43432.580019225      32535.6 
43866.905819417 31396.066666667 
44305.574877612     30099.95 
44748.630626388      29065.9 
45196.116932652      28096.3 
45648.078101978 26934.833333333 
46104.558882998      25584.3 
46565.604471828     24746.85 
47031.260516546      23994.8 
47501.573121712      23038.9 
47976.588852929      22316.7 
48456.354741458 21440.366666667 
48940.918288873     20607.15 
49430.327471761 19841.866666667 
49924.630746479     19069.35 
50423.877053944 18367.966666667 
50928.115824483      17536.7 
51437.396982728      17020.7 
51951.770952555     16441.35 
52471.288662081      15798.4 
52996.001548702 15169.333333333 
53525.961564189        14544 
54061.221179831 14113.566666667 
54601.833391629 13520.466666667 
55147.851725545     12973.75 
55699.330242801 12606.966666667 
56256.323545229 12099.466666667 
56818.886780681 11554.666666667 
57387.075648488      11151.7 
57960.946404973 10717.833333333 
58540.555869022 10237.256666667 
59125.961427713 9834.4533333333 
59717.22104199 9531.6633333333 
60314.39325241      9170.32 
60917.537184934 8824.3633333333 
61526.712556783 8497.8766666667 
62141.979682351 8181.2866666667 
62763.399479174 7832.5666666667 
63391.033473966 7598.1333333333 
64024.943808706 7269.0942857143 
64665.193246793      7019.49 
65311.845179261     6775.595 
65964.963631053      6461.34 
66624.613267364      6241.02 
67290.859400038      5997.24 
67963.767994038     5753.125 
68643.405673978      5563.19 
69329.839730718      5372.73 
70023.138128025     5144.095 
70723.369509305     4915.695 
71430.603204399      4763.31 
72144.909236443      4601.27 
72866.358328807      4417.53 
73595.021912095     4233.475 
74330.972131216     3995.665 
75074.281852528       3893.3 
75825.024671053      3775.47 
76583.274917764      3661.68 
77349.107666942     3505.385 
78122.598743611      3378.15 
78903.824731047     3246.495 
79692.862978358      3120.99 
80489.791608141     3001.755 
81294.689524223      2876.86 
82107.636419465      2779.83 
82928.712783659      2676.07 
83757.999911496       2577.2 
84595.579910611      2461.12 
85441.535709717      2350.14 
86295.951066814      2257.15 
87158.910577482      2176.85 
88030.499683257     2108.995 
88910.80468009      2036.67 
89799.912726891 1948.7266666667 
90697.91185416      1866.72 
91604.890972701      1803.95 
92520.939882428 1727.8366666667 
93446.149281253      1650.35 
94380.610774065      1602.67 
95324.416881806 1537.5933333333 
96277.661050624     1477.035 
97240.43766113 1418.3966666667 
98212.842037741      1360.48 
99194.970458119     1320.185 
100186.9201627      1289.28 
199060.83304441      83.5012 
399467.9878358      5.23677 
594753.39981818      1.02886 
793700.71765891     0.323569 
997811.18987739      0.13178 
1193529.3359837    0.0632253 
1399507.0114645     0.033971 
