#  WAVELENGTH	        FLUX	
#  (ANGSTROM)	(ERG/CM2/S/A)	
############	############	
266.23935455322  4.23886E-23 
271.59076557974  2.06944E-22 
277.04973996789  8.50922E-22 
282.61843974125  3.72714E-21 
288.29907038004  1.75249E-20 
294.09388169468  7.74091E-20 
300.00516871675  2.55879E-19 
306.03527260795  1.28058E-18 
315.30844740325  1.13026E-17 
324.86260866801  8.77079E-17 
334.70627057326  6.03623E-16 
344.8482052779  3.71335E-15 
355.29745074603   1.7474E-14 
362.43892950602  7.62594E-14 
373.42119150899  3.09368E-13 
384.7362270329  1.35628E-12 
392.46942519626   5.5187E-12 
404.36164124913  2.09056E-11 
412.48931023824  6.54987E-11 
420.78034537403  1.73411E-10 
429.23803031605  4.42419E-10 
437.8657147254   1.51367E-9 
446.66681559138   4.38665E-9 
455.64481858477   1.09797E-8 
469.4513122327   2.91425E-8 
478.88728360858   7.41246E-8 
488.51291800911   1.81273E-7 
498.3320276611   4.26955E-7 
503.31534793771   7.22323E-7 
508.34850141708   1.18437E-6 
518.56630629557   2.21204E-6 
528.98948905211   4.69859E-6 
539.62217778206   9.67922E-6 
545.01839955988   1.94293E-5 
555.97326939103   3.79795E-5 
567.14833210579   7.24125E-5 
578.54801358112  0.000134823 
584.33349371693  0.000245746 
596.07859694064  0.000438315 
608.05977673914  0.000766198 
614.14037450653   0.00131405 
626.48459603412   0.00221311 
639.0769364144   0.00366301 
645.46770577855   0.00596278 
651.92238283633   0.00870642 
658.44160666469    0.0120279 
671.67628295866    0.0188471 
678.39304578824    0.0291164 
692.02874600859    0.0443873 
698.94903346867    0.0667953 
712.99790904139     0.103219 
720.12788813181     0.151435 
734.60245868325      0.21176 
741.94848327009     0.304202 
749.36796810279     0.432448 
764.43026426165     0.608633 
772.07456690427     0.848392 
779.79531257331      1.17165 
787.59326569905      1.60378 
803.4238903396      2.17658 
811.45812924299      2.92973 
819.57271053542      3.91229 
827.76843764078      5.18461 
844.40658323736      6.82049 
852.85064906973      8.90878 
861.37915556043      11.5573 
869.99294711603       14.894 
878.69287658719       19.073 
887.47980535306      24.2746 
896.3546034066       30.711 
914.37133093507      154.917 
923.51504424442       1086.3 
932.75019468686      1938.28 
942.07769663373      3479.18 
951.49847360007      5063.01 
961.01345833607       6770.6 
970.62359291943      5403.13 
980.32982884862      9842.43 
990.13312713711      11045.2 
1000.0344584085      13550.4 
1010.0348029926      14827.1 
1020.1351510225      9817.48 
1030.3365025327        18866 
1040.639867558      23357.8 
1051.0462662336      26758.1 
1061.556728896      29695.3 
1072.1722961849      34607.7 
1082.8940191468      39147.5 
1093.7229593382      42979.1 
1104.6601889316     438690.8 
1115.7067908209      1568240 
1126.8638587291      2292070 
1138.1324973164      1735280 
1149.5138222896      1351660 
1161.0089605125       808073 
1172.6190501176       397135 
1184.3452406188       231240 
1196.188693025       128499 
1208.1505799552      35380.6 
1220.2320857548       136327 
1232.4344066123       272490 
1244.7587506785     687647.5 
1257.2063381852      2270240 
1269.7784015671      6829750 
1282.4761855828     23285850 
1295.3009474386     22864500 
1308.253956913     40167100 
1321.3364964821     49886700 
1334.5498614469     61829950 
1347.8953600614     63491200 
1361.374313662     62060900 
1374.9880567986     55980550 
1388.7379373666     50817200 
1402.6253167403     77592400 
1416.6515699077     95339100 
1430.8180856068 91201294.117647 
1445.1262664628 105863461.53846 
1459.5775291275     97546500 
1474.1733044187     98297350 
1488.9150374629    106960000 
1503.8041878376 106715181.81818 
1518.8422297159    102254000 
1534.0306520131    107999000 
1549.3709585332     86771600 
1564.8646681186     83142200 
1580.5133147997    109778000 
1596.3184479477    110466000 
1612.2816324272    107803500 
1628.4044487515    108842000 
1644.688493239    113528300 
1661.1353781714 116781363.63636 
1677.7467319531    131873000 
1694.5241992726    115224500 
1711.4694412654    120541500 
1728.584135678    123620000 
1745.8699770348    129934000 
1763.3286768051    119023500 
1780.9619635732    128647000 
1798.7715832089    124723000 
1816.759299041    118801000 
1834.9268920314    113128000 
1853.2761609517    114785000 
1871.8089225613    118027000 
1890.5270117869    114473000 
1909.4322819047    116187500 
1928.5266047238    114562000 
1947.811870771 117898090.90909 
1967.2899894787 114169235.29412 
1986.9628893735 109364190.47619 
2006.8325182673    104246500 
2026.9008434499    108546500 
2047.1698518844    104855500 
2067.6415504033    108369850 
2088.3179659073    103882500 
2109.2011455664    103200000 
2130.293157022     96700400 
2151.5960885923     97696950 
2173.1120494782     94743100 
2194.843169973     94522100 
2216.7916016727     92773200 
2238.9595176894     87937500 
2261.3491128663     88398150 
2283.962603995 89036966.666667 
2306.8022300349     85359900 
2329.8702523353     80191200 
2353.1689548586 81081466.666667 
2376.7006444072     75873900 
2400.4676508513     76221350 
2424.4723273598     78556500 
2448.7170506334     77247500 
2473.2042211397 75172266.666667 
2497.9362633511     77253400 
2522.9156259846 70015251.851852 
2548.1447822445     73626050 
2573.6262300669     77425200 
2599.3624923676     74681000 
2625.3561172913     78950500 
2651.6096784642 78526466.666667 
2678.1257752488     77219800 
2704.9070330013 74349933.333333 
2731.9561033313     71976400 
2759.2756643647     73208500 
2786.8684210083     62697700 
2814.7371052184 74775366.666667 
2842.8844762706 70924066.666667 
2871.3133210333 71297133.333333 
2900.0264542436     74731400 
2929.026718786     71861000 
2958.3169859739     71737900 
2987.9001558336     71762850 
3017.779157392     71358400 
3047.9569489659     70341950 
3078.4365184556     69987100 
3109.2208836401     68718150 
3140.3130924765     68300800 
3171.7162234013     65978900 
3203.4333856353     65988200 
3235.4677194916     65669500 
3267.8223966866     65741200 
3300.5006206534     64952400 
3333.50562686     63378500 
3366.8406831286     62902900 
3400.5090899598     62679600 
3434.5141808594     61989300 
3468.859322668     61222550 
3503.5479158947     60877250 
3538.5833950537     59975000 
3573.9692290042     59142800 
3609.7089212942     58530020 
3645.8060105072 58499666.666667 
3682.2640706123     56595400 
3719.0867113184     56358700 
3756.2775784316     67466800 
3793.8403542159     77931800 
3831.778757758    105242450 
3870.0965453356     60913300 
3908.797510789    121609000 
3947.8854858969     86886450 
3987.3643407558    121578000 
4027.2379841634    137151000 
4067.510364005    103873050 
4108.1854676451     88813000 
4149.2673223215 128094333.33333 
4190.7599955447    125860000 
4232.6675955002    121406000 
4274.9942714552    109681500 
4317.7442141697     64891250 
4360.9216563114    102687650 
4404.5308728746    109465500 
4448.5761816033 107710666.66667 
4493.0619434193    104923000 
4537.9925628535    102144500 
4583.3724884821    100088700 
4629.2062133669     97084500 
4675.4982755006     92573200 
4722.2532582556     91484500 
4769.4757908381 86600666.666667 
4817.1705487465     65195000 
4865.342254234     64123200 
4913.9956767763     79484400 
4963.1356335441     78583800 
5012.7669898795     76565350 
5062.8946597783     74799200 
5113.5236063761     72619450 
5164.6588424398     70091300 
5216.3054308642     68488650 
5268.4684851729 66546533.333333 
5321.1531700246 64464366.666667 
5374.3647017249     62699950 
5428.1083487421     61111000 
5482.3894322295 59184933.333333 
5537.2133265518 57313133.333333 
5592.5854598173     55837500 
5648.5113144155     54369700 
5704.9964275597     52704600 
5762.0463918353 51083533.333333 
5819.6668557536 49516233.333333 
5877.8635243112 47933333.333333 
5936.6421595543 46567566.666667 
5996.0085811498     45177700 
6055.9686669613     43860900 
6116.5283536309     42490600 
6177.6936371672     41338400 
6239.4705735389 40119833.333333 
6301.8652792743 38918666.666667 
6364.883932067 37740033.333333 
6428.5327713877     36214100 
6492.8180991016 31261533.333333 
6557.7462800926     28125700 
6623.3237428935 32993866.666667 
6689.5569803225     32348725 
6756.4525501257     31447300 
6824.0170756269     30467300 
6892.2572463832     29526700 
6961.179818847     28614425 
7030.7916170355     27750800 
7101.0995332059     26876100 
7172.1105285379     26102800 
7243.8316338233     25325025 
7316.2699501615 24585533.333333 
7389.4326496631     23850475 
7463.3269761598     23054175 
7537.9602459214     22321500 
7613.3398483806 21678133.333333 
7689.4732468644     21065825 
7766.367979333     20318625 
7844.0316591264     19706400 
7922.4719757176     19090850 
8001.6966954748     18522250 
8081.7136624296     17951375 
8162.5307990539     17387175 
8244.1561070444     16933600 
8326.5976681148     16455225 
8409.863644796     15877440 
8493.9622812439     15196275 
8578.9019040564     14714075 
8664.6909230969     13827120 
8751.3378323279     14441100 
8838.8512106512     12946200 
8927.2397227577     13469220 
9016.5121199853     13076125 
9106.6772411851     13736760 
9197.744013597     11101240 
9289.721453733     13139340 
9382.6186682703     12732140 
9476.444854953     10441824 
9571.2093035025     11580950 
9666.9213965375     11661260 
9763.5906105029     11309060 
9861.226516608     10843380 
9959.838781774      9650270 
10059.437169592      9123120 
10160.031541288      9853320 
10261.631856701      9590420 
10364.248175268      9289355 
10467.89065702      8970375 
10572.56956359      8589700 
10678.295259226      8218990 
10785.078211819      7753715 
10892.928993937      6480405 
11001.858283876      7374655 
11111.876866715      7272365 
11222.995635382 6993516.6666667 
11335.225591736      6749510 
11448.577847653      6557150 
11563.06362613      6295280 
11678.694262391      6055525 
11795.481205015      5880010 
11913.436017065 5684523.3333333 
12032.570377236      5479455 
12152.896081008      5328255 
12274.425041818      5137960 
12397.169292236      4959390 
12521.140985159 4768666.6666667 
12646.35239501      4544990 
12772.81591896 3947566.6666667 
12900.54407815 4238266.6666667 
13029.549518932      4138170 
13159.845014121 4005236.6666667 
13291.443464262      3875255 
13424.357898905 3747626.6666667 
13558.601477894 3602436.6666667 
13694.187492673 3461903.3333333 
13831.129367599      3354285 
13969.440661275      3249200 
14109.135067888 3127473.3333333 
14250.226418567 3011593.3333333 
14392.728682753      2892530 
14536.65596958 2796222.3333333 
14682.022529276 2696996.6666667 
14828.842754569 2602906.6666667 
14977.131182115 2512516.6666667 
15126.902493936 2427183.3333333 
15278.171518875 2340696.6666667 
15430.953234064 2255936.6666667 
15585.262766404 2172366.6666667 
15741.115394068 2090846.6666667 
15898.526548009 2023605.7142857 
16057.511813489      1903860 
16218.086931624      1894735 
16380.26780094      1745810 
16544.07047895      1815860 
16709.511183739      1619705 
16876.606295577      1681040 
17045.372358532      1643660 
17215.826082118      1463400 
17387.984342939      1475165 
17561.864186368      1464730 
17737.482828232      1421850 
17914.857656514      1348280 
18094.006233079      1193240 
18274.94629541      1248535 
18457.695758364      1211640 
18642.272715948      1091985 
18828.695443107      1114520 
19016.982397539      1091485 
19207.152221514      1031375 
19399.223743729       929373 
19593.215981166     970558.5 
19789.148140978     939817.5 
19987.039622388       905388 
20186.910018612       872236 
20388.779118798       840762 
20592.666909986       810465 
20798.593579086       781718 
21006.579514877       753828 
21216.645310025       725844 
21428.811763126       689446 
21643.099880757 633167.66666667 
21859.530879564     642720.5 
22078.12618836       622473 
22298.907450244       601958 
22521.896524746       581963 
22747.115489993 558474.33333333 
22974.586644893     536204.5 
23204.332511342     519168.5 
23436.375836456 498831.66666667 
23670.73959482       479388 
23907.446990769       464500 
24146.521460676       446713 
24387.986675283     429638.5 
24631.866542036 413322.66666667 
24878.185207456     397562.5 
25126.967059531 382513.33333333 
25378.236730126     368831.5 
25632.019097427 354225.66666667 
25888.339288402       339825 
26147.222681286       310031 
26408.694908098       314817 
26672.781857179     298205.5 
26939.509675751 296752.33333333 
27208.904772509 283418.66666667 
27480.993820234 263733.33333333 
27755.803758436     264346.5 
28033.361796021 256120.66666667 
28313.695413981       244568 
28596.832368121       224745 
28882.800691802 226294.33333333 
29171.62869872 218738.66666667 
29463.344985707 210383.33333333 
29757.978435564 202010.66666667 
30055.55821992 187826.66666667 
30356.113802119 182041.66666667 
30659.67494014 180346.66666667 
30966.271689541 173999.66666667 
31275.934406437 167719.33333333 
31588.693750501 161724.33333333 
31904.580688006       156164 
32223.626494886     149509.5 
32545.862759835       143105 
32871.321387434     132440.5 
33200.034601308       132392 
33532.034947321       128163 
33867.355296794       123968 
34206.028849762       118569 
34548.08913826       114681 
34893.570029642     110964.5 
35242.505729939     106217.5 
35594.930787238       101717 
35950.880095111     97441.85 
36310.388896062      94351.6 
36673.492785022      91330.6 
37040.227712872     85686.25 
37410.629990001     81833.75 
37784.736289901     80658.15 
38162.5836528      77562.3 
38544.209489328      74539.5 
38929.651584221      71428.4 
39318.948100064     69030.35 
39712.137581064     65976.85 
40109.258956875     61420.55 
40510.351546444      61104.3 
40915.455061908     59234.95 
41324.609612527      56157.6 
41737.855708653     54773.45 
42155.234265739      53152.3 
42576.786608396      51286.4 
43002.55447448      49391.6 
43432.580019225      46639.2 
43866.905819417 45202.333333333 
44305.574877612      43709.3 
44748.630626388      42170.2 
45196.116932652      40737.6 
45648.078101978      38962.8 
46104.558882998     35939.85 
46565.604471828     34834.35 
47031.260516546 34639.533333333 
47501.573121712      33341.1 
47976.588852929     32288.85 
48456.354741458 31022.133333333 
48940.918288873      29809.9 
49430.327471761 28658.033333333 
49924.630746479        27551 
50423.877053944      26447.9 
50928.115824483     24558.45 
51437.396982728      24391.8 
51951.770952555     23650.95 
52471.288662081 22787.866666667 
52996.001548702 21813.966666667 
53525.961564189      21006.5 
54061.221179831      20288.2 
54601.833391629      19420.6 
55147.851725545     18718.05 
55699.330242801 18132.533333333 
56256.323545229 17386.133333333 
56818.886780681 16597.733333333 
57387.075648488        16006 
57960.946404973 15359.566666667 
58540.555869022      14342.6 
59125.961427713      13986.4 
59717.22104199 13620.366666667 
60314.39325241 13126.166666667 
60917.537184934 12633.166666667 
61526.712556783 12157.733333333 
62141.979682351 11657.466666667 
62763.399479174 11132.433333333 
63391.033473966 10859.466666667 
64024.943808706 10408.785714286 
64665.193246793        10058 
65311.845179261       9702.6 
65964.963631053     9245.495 
66624.613267364      8900.87 
67290.859400038      8459.68 
67963.767994038      8198.41 
68643.405673978      7951.61 
69329.839730718     7686.605 
70023.138128025      7348.47 
70723.369509305     7028.935 
71430.603204399      6799.74 
72144.909236443     6575.635 
72866.358328807     6293.125 
73595.021912095     5998.665 
74330.972131216     5495.735 
75074.281852528      5489.14 
75825.024671053      5363.29 
76583.274917764     5204.395 
77349.107666942     4989.745 
78122.598743611      4801.27 
78903.824731047     4621.285 
79692.862978358     4441.755 
80489.791608141     4265.535 
81294.689524223      4086.88 
82107.636419465      3949.99 
82928.712783659      3805.19 
83757.999911496      3664.05 
84595.579910611 3497.4466666667 
85441.535709717      3329.72 
86295.951066814     3187.575 
87158.910577482      3022.07 
88030.499683257     2986.205 
88910.80468009      2890.76 
89799.912726891      2766.46 
90697.91185416     2648.315 
91604.890972701      2558.46 
92520.939882428      2444.56 
93446.149281253     2316.865 
94380.610774065     2265.865 
95324.416881806 2179.7033333333 
96277.661050624      2092.45 
97240.43766113 2009.1533333333 
98212.842037741      1929.74 
99194.970458119     1869.185 
100186.9201627      1825.22 
199060.83304441      116.824 
399467.9878358      7.26901 
594753.39981818      1.42436 
793700.71765891     0.447386 
997811.18987739     0.182085 
1193529.3359837    0.0873256 
1399507.0114645    0.0469049 
