#  WAVELENGTH	        FLUX	
#  (ANGSTROM)	(ERG/CM2/S/A)	
############	############	
        90.9  2.94967E-18 
    92.72709  1.79642E-17 
95.53681355409  9.93836E-17 
97.457103506527  2.72548E-16 
99.415991287008  8.65972E-16 
101.41425271188  3.51057E-15 
103.45267919139  9.62975E-15 
105.53207804313  2.55382E-14 
107.6532728118  7.65133E-14 
109.81710359532  2.95266E-13 
113.14467165136  1.62166E-12 
117.73879903054  8.79354E-12 
120.10534889105  3.81168E-11 
123.7446610678  1.52651E-10 
126.23192875526  3.65153E-10 
127.49424804281  5.89983E-10 
130.05688242847   1.25629E-9 
131.35745125276   2.44244E-9 
132.67102576529   4.07592E-9 
135.33771338317   9.99208E-9 
139.43858143639   2.77516E-8 
142.24129692326    8.0786E-8 
146.55135046134   2.51324E-7 
150.99200293167   7.21274E-7 
154.02694219059   2.18715E-6 
158.69411256591   5.42969E-6 
161.88386422848   1.18149E-5 
165.13772989948   3.00224E-5 
170.14156825316   7.81166E-5 
171.84298393569  0.000151581 
175.2970279128  0.000306004 
178.82049817385  0.000602046 
180.60870315558  0.000806457 
186.0813274699   0.00184791 
189.82156215205   0.00446127 
193.6369755513   0.00736704 
197.52907875988    0.0156205 
201.49941324296    0.0269685 
203.51440737539    0.0443786 
209.68109743327     0.101065 
216.03464436659     0.226897 
218.19499081026     0.371239 
222.58071012555      0.56703 
224.8065172268     0.921496 
229.32512822306      2022.66 
233.93456330034      5205.48 
238.63664802268         8154 
245.86757709442        13908 
250.80951539401      22796.9 
255.85078665343      27749.4 
258.40929451997      55124.6 
263.60332133982       101253 
266.23935455322       151706 
271.59076557974       202330 
277.04973996789       242046 
282.61843974125       480582 
288.29907038004       676143 
294.09388169468       850154 
300.00516871675      1231220 
306.03527260795      2612540 
315.30844740325      7117430 
324.86260866801     10018500 
334.70627057326     17815600 
344.8482052779     26707200 
355.29745074603     43035500 
362.43892950602     72094400 
373.42119150899     83884000 
384.7362270329    111150000 
392.46942519626    153882000 
404.36164124913    188690000 
412.48931023824    227626000 
420.78034537403    252375000 
429.23803031605    282965000 
437.8657147254    349687000 
446.66681559138    397306000 
455.64481858477    428520000 
469.4513122327    498480000 
478.88728360858    579811000 
488.51291800911    624749000 
498.3320276611    751457000 
503.31534793771   1989030000 
508.34850141708   8940260000 
518.56630629557   8463620000 
528.98948905211   7572040000 
539.62217778206   7018980000 
545.01839955988   7855670000 
555.97326939103   9937220000 
567.14833210579  10585200000 
578.54801358112   9778750000 
584.33349371693  10305100000 
596.07859694064   8574690000 
608.05977673914  10073500000 
614.14037450653  11873300000 
626.48459603412  11575300000 
639.0769364144  11810500000 
645.46770577855  11475800000 
651.92238283633  10096000000 
658.44160666469  11553400000 
671.67628295866  12711900000 
678.39304578824  10454300000 
692.02874600859  12904100000 
698.94903346867  10751100000 
712.99790904139  13637500000 
720.12788813181  13426700000 
734.60245868325  13590800000 
741.94848327009  12925700000 
749.36796810279  12931200000 
764.43026426165  12954500000 
772.07456690427  13391400000 
779.79531257331  13640500000 
787.59326569905  13778700000 
803.4238903396  13365300000 
811.45812924299  13359200000 
819.57271053542  13878100000 
827.76843764078  11824000000 
844.40658323736  13469500000 
852.85064906973  13416000000 
861.37915556043  13732400000 
869.99294711603  13770700000 
878.69287658719  13877300000 
887.47980535306  13944700000 
896.3546034066  13623500000 
914.37133093507  16731000000 
923.51504424442  44139900000 
932.75019468686  59149700000 
942.07769663373  66139000000 
951.49847360007  68854500000 
961.01345833607  72407100000 
970.62359291943  43069700000 
980.32982884862  62495600000 
990.13312713711  59046200000 
1000.0344584085  60126100000 
1010.0348029926  61551000000 
1020.1351510225  55264000000 
1030.3365025327  59898500000 
1040.639867558  64263500000 
1051.0462662336  62414700000 
1061.556728896  57501400000 
1072.1722961849  58014300000 
1082.8940191468  55081200000 
1093.7229593382  57045700000 
1104.6601889316  54519650000 
1115.7067908209  48090600000 
1126.8638587291  52440600000 
1138.1324973164  50798600000 
1149.5138222896  49126400000 
1161.0089605125  48145200000 
1172.6190501176  36294400000 
1184.3452406188  44064050000 
1196.188693025  42267100000 
1208.1505799552  36804600000 
1220.2320857548  40988800000 
1232.4344066123  42476700000 
1244.7587506785  40957950000 
1257.2063381852  41276600000 
1269.7784015671  41255300000 
1282.4761855828  39907800000 
1295.3009474386  38544000000 
1308.253956913  39219100000 
1321.3364964821  38099400000 
1334.5498614469  37127450000 
1347.8953600614  36123500000 
1361.374313662  35268500000 
1374.9880567986  34170800000 
1388.7379373666  29596000000 
1402.6253167403  30822300000 
1416.6515699077  29689500000 
1430.8180856068 30537088235.294 
1445.1262664628 29547715384.615 
1459.5775291275  28792500000 
1474.1733044187  28464750000 
1488.9150374629  27559200000 
1503.8041878376 27082790909.091 
1518.8422297159  26098400000 
1534.0306520131  22562000000 
1549.3709585332  21235600000 
1564.8646681186  22993600000 
1580.5133147997  23135750000 
1596.3184479477  21629600000 
1612.2816324272  21059500000 
1628.4044487515  21151800000 
1644.688493239  20840300000 
1661.1353781714 20429959090.909 
1677.7467319531  20626300000 
1694.5241992726  19962300000 
1711.4694412654  18924900000 
1728.584135678  18967900000 
1745.8699770348  18422900000 
1763.3286768051  18095950000 
1780.9619635732  17657650000 
1798.7715832089  17187250000 
1816.759299041  16733600000 
1834.9268920314  16416600000 
1853.2761609517  15909700000 
1871.8089225613  15335600000 
1890.5270117869  14958750000 
1909.4322819047  14361350000 
1928.5266047238  14345600000 
1947.811870771 13681309090.909 
1967.2899894787 13628176470.588 
1986.9628893735 13148261904.762 
2006.8325182673  13008700000 
2026.9008434499  12550850000 
2047.1698518844  10342950000 
2067.6415504033  10904420000 
2088.3179659073  11453600000 
2109.2011455664  11342800000 
2130.293157022  11058500000 
2151.5960885923  10753700000 
2173.1120494782  10509550000 
2194.843169973 10204983333.333 
2216.7916016727   9884605000 
2238.9595176894   9567725000 
2261.3491128663   9373325000 
2283.962603995   8869830000 
2306.8022300349   8743685000 
2329.8702523353   8521630000 
2353.1689548586   8231760000 
2376.7006444072   7865895000 
2400.4676508513   7750325000 
2424.4723273598   7514240000 
2448.7170506334   7270675000 
2473.2042211397   6685200000 
2497.9362633511 6684965652.1739 
2522.9156259846 6605564444.4444 
2548.1447822445   6411935000 
2573.6262300669 6215476666.6667 
2599.3624923676 5999466666.6667 
2625.3561172913   5819510000 
2651.6096784642   5628520000 
2678.1257752488   5465940000 
2704.9070330013 5306526666.6667 
2731.9561033313 5109633333.3333 
2759.2756643647 4948013333.3333 
2786.8684210083   4783355000 
2814.7371052184   4665500000 
2842.8844762706 4514493333.3333 
2871.3133210333   4361260000 
2900.0264542436   4233310000 
2929.026718786   4093215000 
2958.3169859739   3957740000 
2987.9001558336   3818325000 
3017.779157392   3686970000 
3047.9569489659   3579735000 
3078.4365184556   3457450000 
3109.2208836401   3356685000 
3140.3130924765   3215170000 
3171.7162234013   3109780000 
3203.4333856353   3011235000 
3235.4677194916   2931240000 
3267.8223966866   2834290000 
3300.5006206534   2722890000 
3333.50562686   2634080000 
3366.8406831286   2563025000 
3400.5090899598   2463385000 
3434.5141808594   2383570000 
3468.859322668   2319930000 
3503.5479158947   2233490000 
3538.5833950537   2149990000 
3573.9692290042   2084480000 
3609.7089212942   2016028000 
3645.8060105072   1866300000 
3682.2640706123   1803630000 
3719.0867113184   1770440000 
3756.2775784316   1767790000 
3793.8403542159   1729715000 
3831.778757758   1731890000 
3870.0965453356   1591730000 
3908.797510789   1649700000 
3947.8854858969   1540195000 
3987.3643407558   1539965000 
4027.2379841634   1479700000 
4067.510364005   1421685000 
4108.1854676451   1343575000 
4149.2673223215 1330013333.3333 
4190.7599955447   1276035000 
4232.6675955002   1233635000 
4274.9942714552   1193315000 
4317.7442141697   1113905000 
4360.9216563114   1114635000 
4404.5308728746   1082105000 
4448.5761816033 1037233333.3333 
4493.0619434193    999688500 
4537.9925628535    967268500 
4583.3724884821    939271000 
4629.2062133669 896048333.33333 
4675.4982755006    860212500 
4722.2532582556    845375500 
4769.4757908381 814438333.33333 
4817.1705487465    779620500 
4865.342254234 740045666.66667 
4913.9956767763    724758500 
4963.1356335441    700937000 
5012.7669898795    676526500 
5062.8946597783 653757333.33333 
5113.5236063761    630748000 
5164.6588424398 609010333.33333 
5216.3054308642    587962000 
5268.4684851729    568013000 
5321.1531700246 545225666.66667 
5374.3647017249    525340000 
5428.1083487421    509507000 
5482.3894322295 489420333.33333 
5537.2133265518 470201333.33333 
5592.5854598173    455196000 
5648.5113144155 439403666.66667 
5704.9964275597    414510000 
5762.0463918353 399474333.33333 
5819.6668557536 384656666.66667 
5877.8635243112 374815666.66667 
5936.6421595543    363977000 
5996.0085811498    351188000 
6055.9686669613    338542000 
6116.5283536309    326341000 
6177.6936371672    314867000 
6239.4705735389 303918666.66667 
6301.8652792743    293199000 
6364.883932067 283076666.66667 
6428.5327713877    271928250 
6492.8180991016 260415666.66667 
6557.7462800926 246663666.66667 
6623.3237428935 243612333.33333 
6689.5569803225    234151000 
6756.4525501257 225781666.66667 
6824.0170756269    217144500 
6892.2572463832 209167333.33333 
6961.179818847    201412500 
7030.7916170355 193405666.66667 
7101.0995332059    186908750 
7172.1105285379 180131333.33333 
7243.8316338233    173621500 
7316.2699501615    167685000 
7389.4326496631    161803750 
7463.3269761598    155350750 
7537.9602459214    149164750 
7613.3398483806 144192666.66667 
7689.4732468644    139279750 
7766.367979333    133992750 
7844.0316591264    128947000 
7922.4719757176    124117250 
8001.6966954748    119481250 
8081.7136624296    115011500 
8162.5307990539    110164750 
8244.1561070444    105711250 
8326.5976681148    101898750 
8409.863644796     97916600 
8493.9622812439     94110800 
8578.9019040564     91006300 
8664.6909230969     87115820 
8751.3378323279     85778925 
8838.8512106512     81332725 
8927.2397227577     79027640 
9016.5121199853     76479750 
9106.6772411851     74283040 
9197.744013597     69727525 
9289.721453733     68859840 
9382.6186682703     66169040 
9476.444854953     62220020 
9571.2093035025     61265775 
9666.9213965375     59072500 
9763.5906105029     56888360 
9861.226516608     54708040 
9959.838781774 52422833.333333 
10059.437169592     50044500 
10160.031541288     48972600 
10261.631856701     47117300 
10364.248175268     45435000 
10467.89065702     43803150 
10572.56956359 41841833.333333 
10678.295259226     40004650 
10785.078211819     38460200 
10892.928993937     36390300 
11001.858283876     35920800 
11111.876866715     34741600 
11222.995635382     33273600 
11335.225591736     31885150 
11448.577847653     30825850 
11563.06362613     29534400 
11678.694262391     28364250 
11795.481205015     27446200 
11913.436017065     26312100 
12032.570377236     25312650 
12152.896081008     24519000 
12274.425041818 23569566.666667 
12397.169292236     22662650 
12521.140985159 21792133.333333 
12646.35239501     20978600 
12772.81591896     19868000 
12900.54407815 19281366.666667 
13029.549518932     18596050 
13159.845014121 17922366.666667 
13291.443464262     17276350 
13424.357898905     16658700 
13558.601477894 15958366.666667 
13694.187492673 15291666.666667 
13831.129367599     14761950 
13969.440661275 14256666.666667 
14109.135067888     13677700 
14250.226418567 13127366.666667 
14392.728682753     12604600 
14536.65596958 12105696.666667 
14682.022529276     11629100 
14828.842754569     11185000 
14977.131182115     10752300 
15126.902493936 10345466.666667 
15278.171518875      9950100 
15430.953234064      9574710 
15585.262766404      9216230 
15741.115394068      8872140 
15898.526548009 8557831.4285714 
16057.511813489      8148840 
16218.086931624      7950885 
16380.26780094      7564750 
16544.07047895      7416405 
16709.511183739      7000920 
16876.606295577      6833020 
17045.372358532      6591595 
17215.826082118      6238095 
17387.984342939      6025855 
17561.864186368      5829400 
17737.482828232      5638945 
17914.857656514      5396950 
18094.006233079      5105135 
18274.94629541      4950070 
18457.695758364      4792450 
18642.272715948      4577245 
18828.695443107      4454420 
19016.982397539      4269165 
19207.152221514      4101655 
19399.223743729      3887060 
19593.215981166      3783725 
19789.148140978      3636080 
19987.039622388      3495640 
20186.910018612      3361815 
20388.779118798      3232095 
20592.666909986      3112895 
20798.593579086      2997075 
21006.579514877      2883165 
21216.645310025      2781180 
21428.811763126      2680080 
21643.099880757      2537180 
21859.530879564      2447900 
22078.12618836      2361870 
22298.907450244      2279790 
22521.896524746      2201145 
22747.115489993      2107580 
22974.586644893      2018635 
23204.332511342      1951230 
23436.375836456 1870846.6666667 
23670.73959482      1794220 
23907.446990769      1735790 
24146.521460676 1666233.3333333 
24387.986675283      1600480 
24631.866542036 1537443.3333333 
24878.185207456      1476815 
25126.967059531 1419916.6666667 
25378.236730126      1367765 
25632.019097427 1313043.3333333 
25888.339288402      1265680 
26147.222681286      1203030 
26408.694908098      1165610 
26672.781857179      1113840 
26939.509675751 1083216.6666667 
27208.904772509 1036846.6666667 
27480.993820234 985648.66666667 
27755.803758436       958120 
28033.361796021       924849 
28313.695413981 886703.33333333 
28596.832368121       843585 
28882.800691802       816314 
29171.62869872 783702.33333333 
29463.344985707       752695 
29757.978435564 723215.33333333 
30055.55821992 690880.66666667 
30356.113802119 666518.33333333 
30659.67494014       642969 
30966.271689541 618736.66666667 
31275.934406437 595636.66666667 
31588.693750501       573583 
31904.580688006     553231.2 
32223.626494886     529229.5 
32545.862759835       510121 
32871.321387434       487737 
33200.034601308       469439 
33532.034947321       453028 
33867.355296794       437390 
34206.028849762     417501.5 
34548.08913826       403296 
34893.570029642     389746.5 
35242.505729939       372525 
35594.930787238     356234.5 
35950.880095111     340829.5 
36310.388896062       329661 
36673.492785022     319054.5 
37040.227712872     304623.5 
37410.629990001     291180.5 
37784.736289901       280723 
38162.5836528     269307.5 
38544.209489328       258579 
38929.651584221       247674 
39318.948100064       238396 
39712.137581064     228729.5 
40109.258956875       217835 
40510.351546444       211655 
40915.455061908       203532 
41324.609612527     194919.5 
41737.855708653       188541 
42155.234265739       181542 
42576.786608396     174806.5 
43002.55447448       168526 
43432.580019225     161577.5 
43866.905819417       155125 
44305.574877612       148439 
44748.630626388       143286 
45196.116932652       138315 
45648.078101978       132402 
46104.558882998       125590 
46565.604471828     121463.5 
47031.260516546       117448 
47501.573121712     112612.5 
47976.588852929     108927.5 
48456.354741458       104538 
48940.918288873     100353.1 
49430.327471761 96388.766666667 
49924.630746479        92605 
50423.877053944 89017.066666667 
50928.115824483     84836.15 
51437.396982728      82329.8 
51951.770952555      79225.1 
52471.288662081        76258 
52996.001548702 72895.633333333 
53525.961564189     70170.95 
54061.221179831 67676.166666667 
54601.833391629 64763.766666667 
55147.851725545      62382.5 
55699.330242801      60259.3 
56256.323545229 57741.033333333 
56818.886780681 55264.233333333 
57387.075648488 53087.266666667 
57960.946404973 50941.933333333 
58540.555869022      48574.3 
59125.961427713      46816.5 
59717.22104199 45117.966666667 
60314.39325241      43360.3 
60917.537184934 41686.433333333 
61526.712556783 40093.233333333 
62141.979682351      38569.1 
62763.399479174      36967.3 
63391.033473966 35747.366666667 
64024.943808706 34157.871428571 
64665.193246793      32967.6 
65311.845179261     31780.25 
65964.963631053     30274.75 
66624.613267364        29201 
67290.859400038     28060.35 
67963.767994038      26881.3 
68643.405673978      25954.9 
69329.839730718     25072.55 
70023.138128025     23950.25 
70723.369509305     22889.95 
71430.603204399      22131.4 
72144.909236443     21406.85 
72866.358328807     20485.15 
73595.021912095      19601.9 
74330.972131216     18472.05 
75074.281852528     17994.15 
75825.024671053      17438.2 
76583.274917764     16899.65 
77349.107666942     16199.25 
78122.598743611      15559.5 
78903.824731047     14938.95 
79692.862978358     14349.05 
80489.791608141      13787.9 
81294.689524223     13231.95 
82107.636419465     12745.45 
82928.712783659     12260.95 
83757.999911496     11799.45 
84595.579910611 11253.333333333 
85441.535709717     10736.65 
86295.951066814        10316 
87158.910577482     9908.365 
88030.499683257     9614.145 
88910.80468009       9272.7 
89799.912726891      8867.85 
90697.91185416      8483.41 
91604.890972701      8191.17 
92520.939882428      7843.96 
93446.149281253      7480.18 
94380.610774065      7262.53 
95324.416881806      6963.39 
96277.661050624     6678.655 
97240.43766113 6409.0333333333 
98212.842037741      6152.03 
99194.970458119      5956.17 
100186.9201627      5814.14 
199060.83304441      360.201 
399467.9878358        21.92 
594753.39981818      4.25391 
793700.71765891      1.32886 
997811.18987739     0.538949 
1193529.3359837     0.257864 
1399507.0114645     0.138271 
