#  WAVELENGTH	        FLUX	
#  (ANGSTROM)	(ERG/CM2/S/A)	
############	############	
412.48931023824  1.29755E-24 
420.78034537403  5.30558E-24 
429.23803031605  2.05276E-23 
437.8657147254  1.21203E-22 
446.66681559138  5.62093E-22 
455.64481858477  2.10531E-21 
469.4513122327  8.57661E-21 
478.88728360858  3.28183E-20 
488.51291800911   1.1853E-19 
498.3320276611  4.04909E-19 
503.31534793771  1.09631E-18 
508.34850141708  2.46608E-18 
518.56630629557  6.04328E-18 
528.98948905211  1.79098E-17 
539.62217778206  5.00447E-17 
545.01839955988  1.35959E-16 
555.97326939103  3.53377E-16 
567.14833210579  8.85764E-16 
578.54801358112  2.12163E-15 
584.33349371693   5.0292E-15 
596.07859694064  1.14317E-14 
608.05977673914  2.52372E-14 
614.14037450653  5.41752E-14 
626.48459603412  1.13256E-13 
639.0769364144  2.31023E-13 
645.46770577855  4.60047E-13 
651.92238283633  7.85117E-13 
658.44160666469   1.2384E-12 
671.67628295866   2.3336E-12 
678.39304578824  4.30937E-12 
692.02874600859  7.80252E-12 
698.94903346867  1.38481E-11 
712.99790904139   2.5568E-11 
720.12788813181  4.38102E-11 
734.60245868325  7.01613E-11 
741.94848327009  1.16652E-10 
749.36796810279   1.9108E-10 
764.43026426165  3.08606E-10 
772.07456690427  4.91399E-10 
779.79531257331  7.72442E-10 
787.59326569905   1.19339E-9 
803.4238903396   1.83451E-9 
811.45812924299   2.78181E-9 
819.57271053542   4.16691E-9 
827.76843764078   6.17432E-9 
844.40658323736   9.05283E-9 
852.85064906973   1.31408E-8 
861.37915556043   1.88867E-8 
869.99294711603   2.68717E-8 
878.69287658719   3.79408E-8 
887.47980535306   5.30699E-8 
896.3546034066   7.35913E-8 
914.37133093507  0.000149968 
923.51504424442   0.00052902 
932.75019468686  0.000733142 
942.07769663373   0.00105144 
951.49847360007   0.00149552 
961.01345833607   0.00205966 
970.62359291943   0.00271567 
980.32982884862   0.00370208 
990.13312713711   0.00494418 
1000.0344584085   0.00679105 
1010.0348029926   0.00892839 
1020.1351510225    0.0113314 
1030.3365025327    0.0155581 
1040.639867558    0.0204375 
1051.0462662336    0.0261871 
1061.556728896     0.033899 
1072.1722961849    0.0437946 
1082.8940191468    0.0563547 
1093.7229593382    0.0710367 
1104.6601889316     0.341551 
1115.7067908209     0.748921 
1126.8638587291      1.16108 
1138.1324973164      1.49344 
1149.5138222896      1.69164 
1161.0089605125      2.11486 
1172.6190501176      2.60645 
1184.3452406188      2.23404 
1196.188693025      1.44623 
1208.1505799552     0.631948 
1220.2320857548      1.82605 
1232.4344066123      4.56926 
1244.7587506785    10.083605 
1257.2063381852      14.0428 
1269.7784015671      18.4087 
1282.4761855828     26.76035 
1295.3009474386      34.2015 
1308.253956913      41.3741 
1321.3364964821      47.6271 
1334.5498614469     57.84425 
1347.8953600614      69.9794 
1361.374313662       80.699 
1374.9880567986     91.85235 
1388.7379373666      107.804 
1402.6253167403     132.5065 
1416.6515699077      153.412 
1430.8180856068 186.35647058824 
1445.1262664628 213.79392307692 
1459.5775291275      252.783 
1474.1733044187     279.4995 
1488.9150374629      363.696 
1503.8041878376 416.00359090909 
1518.8422297159      552.422 
1534.0306520131     1061.315 
1549.3709585332      1353.24 
1564.8646681186     1556.595 
1580.5133147997      2136.97 
1596.3184479477      2398.56 
1612.2816324272     2983.465 
1628.4044487515      3968.08 
1644.688493239     4656.015 
1661.1353781714 6219.0490909091 
1677.7467319531        10113 
1694.5241992726     15200.25 
1711.4694412654     44347.25 
1728.584135678     108235.4 
1745.8699770348       214380 
1763.3286768051       152557 
1780.9619635732     344483.5 
1798.7715832089     272327.5 
1816.759299041       244840 
1834.9268920314     211562.5 
1853.2761609517       413550 
1871.8089225613       504918 
1890.5270117869       582650 
1909.4322819047     607499.5 
1928.5266047238       469226 
1947.811870771 912925.90909091 
1967.2899894787 791236.64705882 
1986.9628893735 841333.23809524 
2006.8325182673     774915.5 
2026.9008434499      1186720 
2047.1698518844      1149700 
2067.6415504033    1577586.5 
2088.3179659073      1751915 
2109.2011455664      2167615 
2130.293157022      2233320 
2151.5960885923      2288935 
2173.1120494782      2485705 
2194.843169973      2580990 
2216.7916016727      2952965 
2238.9595176894      2711450 
2261.3491128663      2158170 
2283.962603995 2788613.3333333 
2306.8022300349      2626575 
2329.8702523353      1511070 
2353.1689548586      1923510 
2376.7006444072    1078549.5 
2400.4676508513      1415815 
2424.4723273598      2993350 
2448.7170506334      3309665 
2473.2042211397      2088790 
2497.9362633511 2015475.6521739 
2522.9156259846 1282670.7407407 
2548.1447822445      2309750 
2573.6262300669 2838153.3333333 
2599.3624923676      2239030 
2625.3561172913      4898445 
2651.6096784642 5739806.6666667 
2678.1257752488      5497145 
2704.9070330013      4450420 
2731.9561033313 3355026.6666667 
2759.2756643647 3856413.3333333 
2786.8684210083      1011795 
2814.7371052184 5364446.6666667 
2842.8844762706 3592803.3333333 
2871.3133210333 6259013.3333333 
2900.0264542436      8126650 
2929.026718786      7268675 
2958.3169859739      7536810 
2987.9001558336      7519680 
3017.779157392      7800600 
3047.9569489659      8185020 
3078.4365184556      7868710 
3109.2208836401      8185820 
3140.3130924765      8028010 
3171.7162234013      7573780 
3203.4333856353      7801065 
3235.4677194916      8773310 
3267.8223966866      9759935 
3300.5006206534      9587000 
3333.50562686      9366150 
3366.8406831286      8401625 
3400.5090899598      9080265 
3434.5141808594      9184260 
3468.859322668      9657605 
3503.5479158947      9851330 
3538.5833950537      9882185 
3573.9692290042      8936750 
3609.7089212942      9477844 
3645.8060105072     10521700 
3682.2640706123     10286350 
3719.0867113184      9091135 
3756.2775784316     10907500 
3793.8403542159     10170790 
3831.778757758     11630600 
3870.0965453356     10507200 
3908.797510789      9685535 
3947.8854858969      9729270 
3987.3643407558     13467600 
4027.2379841634     13564800 
4067.510364005     13376750 
4108.1854676451     13177100 
4149.2673223215     13788100 
4190.7599955447     13125150 
4232.6675955002     12870800 
4274.9942714552     11197250 
4317.7442141697     12318700 
4360.9216563114     13190600 
4404.5308728746     13513500 
4448.5761816033 13781466.666667 
4493.0619434193     14098300 
4537.9925628535     14135900 
4583.3724884821     13989750 
4629.2062133669 14027333.333333 
4675.4982755006     13781500 
4722.2532582556     13944450 
4769.4757908381     13836400 
4817.1705487465     13329350 
4865.342254234 12625333.333333 
4913.9956767763     13091550 
4963.1356335441     12900800 
5012.7669898795     12894900 
5062.8946597783     12910900 
5113.5236063761     12540800 
5164.6588424398     11756700 
5216.3054308642     12424150 
5268.4684851729 12175333.333333 
5321.1531700246     12061200 
5374.3647017249     11933750 
5428.1083487421 11955466.666667 
5482.3894322295 11880933.333333 
5537.2133265518     11682500 
5592.5854598173     11611850 
5648.5113144155 11512233.333333 
5704.9964275597 11416766.666667 
5762.0463918353 11298766.666667 
5819.6668557536 11151333.333333 
5877.8635243112     10834100 
5936.6421595543 10838466.666667 
5996.0085811498 10649166.666667 
6055.9686669613 10504433.333333 
6116.5283536309 10140066.666667 
6177.6936371672 10157066.666667 
6239.4705735389 9976673.3333333 
6301.8652792743 9830136.6666667 
6364.883932067      9693830 
6428.5327713877      9467115 
6492.8180991016 9221996.6666667 
6557.7462800926 8672726.6666667 
6623.3237428935      9115210 
6689.5569803225      8976925 
6756.4525501257 8814246.6666667 
6824.0170756269      8653830 
6892.2572463832      8506930 
6961.179818847    8342777.5 
7030.7916170355      8205040 
7101.0995332059    8026567.5 
7172.1105285379      7858890 
7243.8316338233    7748892.5 
7316.2699501615      7626560 
7389.4326496631    7438047.5 
7463.3269761598      7330015 
7537.9602459214    7193857.5 
7613.3398483806 7046123.3333333 
7689.4732468644      6923940 
7766.367979333      6799620 
7844.0316591264    6674197.5 
7922.4719757176    6517517.5 
8001.6966954748      6399670 
8081.7136624296      6283450 
8162.5307990539      6114680 
8244.1561070444      6029980 
8326.5976681148    5888522.5 
8409.863644796      5758642 
8493.9622812439      5422720 
8578.9019040564      5518895 
8664.6909230969      5270066 
8751.3378323279      5284430 
8838.8512106512    5155822.5 
8927.2397227577      5053810 
9016.5121199853    4948547.5 
9106.6772411851      4894550 
9197.744013597      4673105 
9289.721453733      4695902 
9382.6186682703      4557696 
9476.444854953      4400642 
9571.2093035025      4372670 
9666.9213965375      4287158 
9763.5906105029      4195666 
9861.226516608      4095362 
9959.838781774 3992523.3333333 
10059.437169592      3867560 
10160.031541288      3830000 
10261.631856701      3748765 
10364.248175268      3666865 
10467.89065702      3580090 
10572.56956359 3462046.6666667 
10678.295259226      3372020 
10785.078211819      3279085 
10892.928993937      3143290 
11001.858283876      3176255 
11111.876866715      3108355 
11222.995635382 3021723.3333333 
11335.225591736      2940495 
11448.577847653      2895960 
11563.06362613 2805886.6666667 
11678.694262391      2737200 
11795.481205015      2668535 
11913.436017065 2607503.3333333 
12032.570377236      2545390 
12152.896081008      2515460 
12274.425041818      2449940 
12397.169292236      2393330 
12521.140985159 2334366.6666667 
12646.35239501      2279000 
12772.81591896      2160390 
12900.54407815      2164060 
13029.549518932      2111310 
13159.845014121 2062316.6666667 
13291.443464262      2018675 
13424.357898905 1976486.6666667 
13558.601477894 1919773.3333333 
13694.187492673      1868650 
13831.129367599      1831225 
13969.440661275 1789196.6666667 
14109.135067888 1739236.6666667 
14250.226418567 1694626.6666667 
14392.728682753 1642566.6666667 
14536.65596958 1609610.6666667 
14682.022529276 1564503.3333333 
14828.842754569 1521586.6666667 
14977.131182115 1475376.6666667 
15126.902493936 1453156.6666667 
15278.171518875 1415943.3333333 
15430.953234064      1379250 
15585.262766404 1341513.3333333 
15741.115394068 1288456.6666667 
15898.526548009      1264750 
16057.511813489      1221970 
16218.086931624      1195975 
16380.26780094      1145510 
16544.07047895      1132405 
16709.511183739      1062555 
16876.606295577      1054430 
17045.372358532      1018790 
17215.826082118     953404.5 
17387.984342939       934282 
17561.864186368       911150 
17737.482828232     886075.5 
17914.857656514     850455.5 
18094.006233079     792561.5 
18274.94629541       783665 
18457.695758364       762675 
18642.272715948     711335.5 
18828.695443107     706432.5 
19016.982397539     686956.5 
19207.152221514       658593 
19399.223743729       615177 
19593.215981166       612205 
19789.148140978     591550.5 
19987.039622388       572133 
20186.910018612     549802.5 
20388.779118798     532548.5 
20592.666909986       512353 
20798.593579086     494801.5 
21006.579514877     478587.5 
21216.645310025     462146.5 
21428.811763126     446134.5 
21643.099880757 417549.33333333 
21859.530879564       409954 
22078.12618836     397289.5 
22298.907450244       384394 
22521.896524746     371345.5 
22747.115489993       356913 
22974.586644893       343436 
23204.332511342       332350 
23436.375836456 319856.66666667 
23670.73959482     306741.5 
23907.446990769     298020.5 
24146.521460676 286401.33333333 
24387.986675283       275301 
24631.866542036 264897.33333333 
24878.185207456     255748.5 
25126.967059531 246485.66666667 
25378.236730126     237272.5 
25632.019097427 228509.33333333 
25888.339288402     220752.5 
26147.222681286 208120.66666667 
26408.694908098       203460 
26672.781857179     196657.5 
26939.509675751 190686.33333333 
27208.904772509 182912.33333333 
27480.993820234 174688.33333333 
27755.803758436       169796 
28033.361796021 164222.66666667 
28313.695413981 157722.33333333 
28596.832368121       150516 
28882.800691802       145814 
29171.62869872 140184.33333333 
29463.344985707 134989.66666667 
29757.978435564       129906 
30055.55821992 124346.33333333 
30356.113802119 120049.66666667 
30659.67494014 116092.66666667 
30966.271689541 111754.66666667 
31275.934406437       107848 
31588.693750501 104077.33333333 
31904.580688006    100549.76 
32223.626494886     96384.95 
32545.862759835      93022.6 
32871.321387434     88936.75 
33200.034601308      85761.5 
33532.034947321      82906.7 
33867.355296794        80063 
34206.028849762     76723.35 
34548.08913826      74217.2 
34893.570029642     71830.25 
35242.505729939     68753.35 
35594.930787238        65835 
35950.880095111        63149 
36310.388896062      61108.2 
36673.492785022      59139.9 
37040.227712872      56579.5 
37410.629990001      54135.9 
37784.736289901     52365.05 
38162.5836528     50347.15 
38544.209489328     48349.65 
38929.651584221     46511.15 
39318.948100064      44720.8 
39712.137581064      42961.9 
40109.258956875     41028.85 
40510.351546444     39840.65 
40915.455061908     38412.75 
41324.609612527     36958.15 
41737.855708653     35605.15 
42155.234265739      34396.7 
42576.786608396     33163.35 
43002.55447448      31937.5 
43432.580019225      30701.3 
43866.905819417      29380.3 
44305.574877612     28119.05 
44748.630626388      27170.2 
45196.116932652     26249.25 
45648.078101978 25178.733333333 
46104.558882998     23967.15 
46565.604471828     23316.45 
47031.260516546 22470.766666667 
47501.573121712      21582.9 
47976.588852929        20897 
48456.354741458 20080.033333333 
48940.918288873     19302.85 
49430.327471761 18562.133333333 
49924.630746479     17855.25 
50423.877053944 17181.866666667 
50928.115824483     16479.95 
51437.396982728      15934.9 
51951.770952555      15346.3 
52471.288662081 14799.133333333 
52996.001548702 14165.833333333 
53525.961564189      13660.9 
54061.221179831 13182.466666667 
54601.833391629 12630.866666667 
55147.851725545      12199.4 
55699.330242801 11780.366666667 
56256.323545229 11306.766666667 
56818.886780681 10852.633333333 
57387.075648488 10421.933333333 
57960.946404973 10012.663333333 
58540.555869022 9594.3466666667 
59125.961427713      9245.43 
59717.22104199      8896.41 
60314.39325241 8558.2866666667 
60917.537184934      8235.22 
61526.712556783      7932.11 
62141.979682351 7634.3733333333 
62763.399479174      7356.75 
63391.033473966      7093.05 
64024.943808706 6785.4128571429 
64665.193246793      6552.86 
65311.845179261      6325.92 
65964.963631053       6033.5 
66624.613267364      5824.34 
67290.859400038     5622.905 
67963.767994038      5373.15 
68643.405673978      5192.26 
69329.839730718       5019.8 
70023.138128025      4799.84 
70723.369509305     4593.335 
71430.603204399      4444.54 
72144.909236443     4302.275 
72866.358328807      4121.22 
73595.021912095     3949.885 
74330.972131216      3765.17 
75074.281852528     3632.435 
75825.024671053      3521.51 
76583.274917764      3415.31 
77349.107666942     3279.565 
78122.598743611     3150.385 
78903.824731047      3027.51 
79692.862978358     2910.515 
80489.791608141     2799.035 
81294.689524223      2692.62 
82107.636419465      2591.98 
82928.712783659      2495.43 
83757.999911496      2403.56 
84595.579910611      2294.75 
85441.535709717      2191.52 
86295.951066814     2113.355 
87158.910577482      2036.78 
88030.499683257     1966.865 
88910.80468009     1898.505 
89799.912726891 1817.3433333333 
90697.91185416      1740.05 
91604.890972701      1681.52 
92520.939882428 1611.6666666667 
93446.149281253      1545.02 
94380.610774065      1494.51 
95324.416881806      1434.14 
96277.661050624      1376.66 
97240.43766113      1322.06 
98212.842037741      1270.25 
99194.970458119      1230.52 
100186.9201627      1201.82 
199060.83304441      77.9889 
399467.9878358      4.91138 
594753.39981818     0.967379 
793700.71765891     0.304757 
997811.18987739      0.12428 
1193529.3359837    0.0596857 
1399507.0114645    0.0320952 
