#  WAVELENGTH	        FLUX	
#  (ANGSTROM)	(ERG/CM2/S/A)	
############	############	
384.7362270329  5.44897E-23 
392.46942519626  4.38845E-22 
404.36164124913  2.99798E-21 
412.48931023824  1.61761E-21 
420.78034537403  6.11981E-21 
429.23803031605  2.19702E-20 
437.8657147254  1.17582E-19 
446.66681559138  5.00749E-19 
455.64481858477  1.74248E-18 
469.4513122327  6.56303E-18 
478.88728360858  2.32971E-17 
488.51291800911  7.82896E-17 
498.3320276611  2.49561E-16 
503.31534793771  6.49488E-16 
508.34850141708  1.40843E-15 
518.56630629557  3.28009E-15 
528.98948905211  9.14184E-15 
539.62217778206  2.40521E-14 
545.01839955988   6.1765E-14 
555.97326939103  1.51965E-13 
567.14833210579  3.61229E-13 
578.54801358112  8.21806E-13 
584.33349371693  1.85411E-12 
596.07859694064   4.0171E-12 
608.05977673914  8.46839E-12 
614.14037450653  1.73812E-11 
626.48459603412  3.47933E-11 
639.0769364144  6.80367E-11 
645.46770577855  1.30095E-10 
651.92238283633  2.15094E-10 
658.44160666469  3.30179E-10 
671.67628295866  5.99162E-10 
678.39304578824   1.06638E-9 
692.02874600859   1.86359E-9 
698.94903346867   3.19507E-9 
712.99790904139   5.68523E-9 
720.12788813181   9.42904E-9 
734.60245868325   1.46738E-8 
741.94848327009   2.36542E-8 
749.36796810279   3.75967E-8 
764.43026426165   5.89545E-8 
772.07456690427   9.12433E-8 
779.79531257331   1.39492E-7 
787.59326569905   2.09709E-7 
803.4238903396   3.13976E-7 
811.45812924299   4.63971E-7 
819.57271053542   6.77657E-7 
827.76843764078   9.79722E-7 
844.40658323736   1.40245E-6 
852.85064906973   1.98836E-6 
861.37915556043   2.79326E-6 
869.99294711603   3.88468E-6 
878.69287658719   5.36841E-6 
887.47980535306   7.35001E-6 
896.3546034066   9.96075E-6 
914.37133093507    0.0129656 
923.51504424442    0.0419979 
932.75019468686    0.0548446 
942.07769663373    0.0744876 
951.49847360007     0.105589 
961.01345833607     0.139029 
970.62359291943     0.172932 
980.32982884862     0.230498 
990.13312713711     0.285516 
1000.0344584085     0.389664 
1010.0348029926     0.492823 
1020.1351510225     0.601264 
1030.3365025327     0.781823 
1040.639867558     0.994208 
1051.0462662336      1.24399 
1061.556728896      1.50818 
1072.1722961849      1.89492 
1082.8940191468      2.34498 
1093.7229593382      2.81109 
1104.6601889316    18.163025 
1115.7067908209      40.0148 
1126.8638587291      54.3122 
1138.1324973164      65.8332 
1149.5138222896      69.0416 
1161.0089605125       86.009 
1172.6190501176      89.1628 
1184.3452406188      71.0409 
1196.188693025      24.9857 
1208.1505799552      6.79671 
1220.2320857548      29.7769 
1232.4344066123      79.7217 
1244.7587506785      289.503 
1257.2063381852      477.485 
1269.7784015671      827.745 
1282.4761855828      1555.77 
1295.3009474386      1607.09 
1308.253956913      2709.32 
1321.3364964821      3513.18 
1334.5498614469     4722.815 
1347.8953600614      5876.38 
1361.374313662      6681.65 
1374.9880567986     8244.475 
1388.7379373666      10499.3 
1402.6253167403      12316.5 
1416.6515699077      14697.2 
1430.8180856068 16160.482352941 
1445.1262664628 21414.515384615 
1459.5775291275      23222.8 
1474.1733044187      27816.8 
1488.9150374629      34367.3 
1503.8041878376 39398.036363636 
1518.8422297159        47274 
1534.0306520131       497813 
1549.3709585332       654207 
1564.8646681186       713882 
1580.5133147997      1215455 
1596.3184479477      1170490 
1612.2816324272      1112975 
1628.4044487515      1352100 
1644.688493239      1447286 
1661.1353781714 1532029.1818182 
1677.7467319531      3372010 
1694.5241992726      3313155 
1711.4694412654      4155620 
1728.584135678      4879630 
1745.8699770348      5814680 
1763.3286768051      5049630 
1780.9619635732      6030925 
1798.7715832089      6182710 
1816.759299041      5549790 
1834.9268920314      5075785 
1853.2761609517      5709085 
1871.8089225613      5952120 
1890.5270117869      6265140 
1909.4322819047      6498300 
1928.5266047238      6073330 
1947.811870771 7556588.1818182 
1967.2899894787      7544130 
1986.9628893735 7036482.3809524 
2006.8325182673      6270280 
2026.9008434499      7395625 
2047.1698518844      6847095 
2067.6415504033      8386189 
2088.3179659073      7581695 
2109.2011455664      7573630 
2130.293157022      6560645 
2151.5960885923      7072135 
2173.1120494782      6910145 
2194.843169973 7271226.6666667 
2216.7916016727      7039380 
2238.9595176894      6563120 
2261.3491128663      6684475 
2283.962603995      7151930 
2306.8022300349      6676990 
2329.8702523353      4497215 
2353.1689548586      5226000 
2376.7006444072      3756385 
2400.4676508513      4439685 
2424.4723273598      6875050 
2448.7170506334      6991250 
2473.2042211397 6565503.3333333 
2497.9362633511 7270745.6521739 
2522.9156259846 5793848.8888889 
2548.1447822445      6401275 
2573.6262300669 6583583.3333333 
2599.3624923676 5725616.6666667 
2625.3561172913      8594105 
2651.6096784642      9089170 
2678.1257752488      8670135 
2704.9070330013      8219250 
2731.9561033313      7051120 
2759.2756643647 7907676.6666667 
2786.8684210083      3669505 
2814.7371052184      9407550 
2842.8844762706 9059766.6666667 
2871.3133210333 9352526.6666667 
2900.0264542436     10757700 
2929.026718786     10248650 
2958.3169859739     10765200 
2987.9001558336     11126300 
3017.779157392     11226500 
3047.9569489659     11255950 
3078.4365184556     11705400 
3109.2208836401     11284650 
3140.3130924765     11808500 
3171.7162234013     11087800 
3203.4333856353     11416950 
3235.4677194916     11719000 
3267.8223966866     12032900 
3300.5006206534     12271550 
3333.50562686     11987600 
3366.8406831286     11998100 
3400.5090899598     12511550 
3434.5141808594     12539000 
3468.859322668     12320900 
3503.5479158947     12765850 
3538.5833950537     12870050 
3573.9692290042     12642300 
3609.7089212942     12815040 
3645.8060105072     13116400 
3682.2640706123     16058250 
3719.0867113184     30068700 
3756.2775784316     42745900 
3793.8403542159     47678550 
3831.778757758     58117600 
3870.0965453356     38857900 
3908.797510789     51529700 
3947.8854858969     45262350 
3987.3643407558     57997100 
4027.2379841634     57478800 
4067.510364005     53258900 
4108.1854676451     46768050 
4149.2673223215 53767666.666667 
4190.7599955447     52079800 
4232.6675955002     50686400 
4274.9942714552     48625600 
4317.7442141697     38777100 
4360.9216563114     47617550 
4404.5308728746     46150350 
4448.5761816033     45754000 
4493.0619434193     44930600 
4537.9925628535     43670650 
4583.3724884821     43228100 
4629.2062133669 42394966.666667 
4675.4982755006     40569850 
4722.2532582556     40891400 
4769.4757908381 39656333.333333 
4817.1705487465     35707100 
4865.342254234     33453400 
4913.9956767763     36318350 
4963.1356335441 35418466.666667 
5012.7669898795     34605800 
5062.8946597783 34081766.666667 
5113.5236063761     32778400 
5164.6588424398 31522766.666667 
5216.3054308642     31148600 
5268.4684851729 30229066.666667 
5321.1531700246 29646233.333333 
5374.3647017249     28934500 
5428.1083487421 28434933.333333 
5482.3894322295     27779600 
5537.2133265518 27103366.666667 
5592.5854598173     26548300 
5648.5113144155 25880066.666667 
5704.9964275597     25329200 
5762.0463918353 24658033.333333 
5819.6668557536     24006900 
5877.8635243112     23278200 
5936.6421595543 22742166.666667 
5996.0085811498 22135866.666667 
6055.9686669613 21586633.333333 
6116.5283536309 20842633.333333 
6177.6936371672     20496600 
6239.4705735389     19888100 
6301.8652792743     19416200 
6364.883932067 18928366.666667 
6428.5327713877     18340475 
6492.8180991016     17286700 
6557.7462800926 15699933.333333 
6623.3237428935 17078966.666667 
6689.5569803225     16624400 
6756.4525501257 16186933.333333 
6824.0170756269     15735250 
6892.2572463832     15317800 
6961.179818847     14888900 
7030.7916170355 14510333.333333 
7101.0995332059     14061650 
7172.1105285379     13712900 
7243.8316338233     13360925 
7316.2699501615     13031300 
7389.4326496631     12666275 
7463.3269761598     12286575 
7537.9602459214     11986325 
7613.3398483806 11669966.666667 
7689.4732468644     11376900 
7766.367979333     11015725 
7844.0316591264     10718150 
7922.4719757176     10428450 
8001.6966954748     10163475 
8081.7136624296    9894892.5 
8162.5307990539      9590060 
8244.1561070444      9375180 
8326.5976681148    9023332.5 
8409.863644796      8908178 
8493.9622812439    8794522.5 
8578.9019040564    9279872.5 
8664.6909230969      8924216 
8751.3378323279      9526180 
8838.8512106512    8729747.5 
8927.2397227577      8798098 
9016.5121199853    8566232.5 
9106.6772411851      8617808 
9197.744013597      7663100 
9289.721453733      8152180 
9382.6186682703      7837126 
9476.444854953      7184310 
9571.2093035025      7357260 
9666.9213965375      7177174 
9763.5906105029      6972896 
9861.226516608      6734736 
9959.838781774 6427831.3333333 
10059.437169592      6096565 
10160.031541288      6168575 
10261.631856701      5980380 
10364.248175268      5805255 
10467.89065702      5598785 
10572.56956359 5384706.6666667 
10678.295259226      5193410 
10785.078211819      5043290 
10892.928993937      4610910 
11001.858283876      4788285 
11111.876866715      4649765 
11222.995635382 4456906.6666667 
11335.225591736      4314600 
11448.577847653      4215920 
11563.06362613 4040173.3333333 
11678.694262391      3902940 
11795.481205015      3788415 
11913.436017065 3687336.6666667 
12032.570377236      3562300 
12152.896081008      3477340 
12274.425041818 3359883.3333333 
12397.169292236      3255595 
12521.140985159 3140443.3333333 
12646.35239501      3050775 
12772.81591896      2838440 
12900.54407815 2842346.6666667 
13029.549518932      2754685 
13159.845014121 2667243.3333333 
13291.443464262      2587680 
13424.357898905      2506760 
13558.601477894      2415050 
13694.187492673 2321406.6666667 
13831.129367599      2259150 
13969.440661275      2193380 
14109.135067888      2115580 
14250.226418567 2042066.6666667 
14392.728682753      1957620 
14536.65596958      1902671 
14682.022529276 1836906.6666667 
14828.842754569 1775453.3333333 
14977.131182115      1707810 
15126.902493936      1655780 
15278.171518875      1594140 
15430.953234064      1559040 
15585.262766404 1518653.3333333 
15741.115394068 1475753.3333333 
15898.526548009 1472225.7142857 
16057.511813489      1364320 
16218.086931624      1388170 
16380.26780094      1278660 
16544.07047895      1309270 
16709.511183739      1211150 
16876.606295577      1214390 
17045.372358532      1175235 
17215.826082118      1088915 
17387.984342939      1074650 
17561.864186368      1044260 
17737.482828232      1014750 
17914.857656514       974940 
18094.006233079       906106 
18274.94629541     900639.5 
18457.695758364       873107 
18642.272715948     821462.5 
18828.695443107     812918.5 
19016.982397539     786550.5 
19207.152221514       756072 
19399.223743729     706655.5 
19593.215981166     701620.5 
19789.148140978     676658.5 
19987.039622388       652465 
20186.910018612       628854 
20388.779118798       606924 
20592.666909986     585206.5 
20798.593579086     565042.5 
21006.579514877       544922 
21216.645310025     525948.5 
21428.811763126     508758.5 
21643.099880757 477999.33333333 
21859.530879564     467542.5 
22078.12618836     451827.5 
22298.907450244     437580.5 
22521.896524746       422941 
22747.115489993 406494.66666667 
22974.586644893     390749.5 
23204.332511342       378587 
23436.375836456       363855 
23670.73959482     349718.5 
23907.446990769       338568 
24146.521460676 325707.66666667 
24387.986675283     313546.5 
24631.866542036 302648.33333333 
24878.185207456     289866.5 
25126.967059531 280584.66666667 
25378.236730126       274206 
25632.019097427 260717.66666667 
25888.339288402       255258 
26147.222681286 237834.66666667 
26408.694908098 236968.33333333 
26672.781857179     222465.5 
26939.509675751       221401 
27208.904772509 212358.66666667 
27480.993820234 199628.33333333 
27755.803758436     197061.5 
28033.361796021       190540 
28313.695413981       183036 
28596.832368121 172383.33333333 
28882.800691802       169084 
29171.62869872       162716 
29463.344985707 156588.66666667 
29757.978435564       150716 
30055.55821992       143182 
30356.113802119 138942.66666667 
30659.67494014 134646.33333333 
30966.271689541 129735.33333333 
31275.934406437       125144 
31588.693750501 120771.66666667 
31904.580688006     116678.8 
32223.626494886       111846 
32545.862759835       107971 
32871.321387434       102285 
33200.034601308     99292.85 
33532.034947321      95890.1 
33867.355296794     92779.95 
34206.028849762      88832.7 
34548.08913826      85962.5 
34893.570029642     83201.85 
35242.505729939     79648.85 
35594.930787238     76366.75 
35950.880095111      73185.8 
36310.388896062      70569.9 
36673.492785022      68602.1 
37040.227712872     65854.65 
37410.629990001      62586.9 
37784.736289901      60783.8 
38162.5836528     58580.65 
38544.209489328     56471.75 
38929.651584221     53763.75 
39318.948100064     52394.45 
39712.137581064      50131.9 
40109.258956875     47418.45 
40510.351546444      46690.3 
40915.455061908     45005.75 
41324.609612527      42754.9 
41737.855708653     41755.85 
42155.234265739     40295.85 
42576.786608396      38865.4 
43002.55447448     37495.05 
43432.580019225      35736.9 
43866.905819417 34583.433333333 
44305.574877612     33179.55 
44748.630626388        32025 
45196.116932652     30953.15 
45648.078101978        29671 
46104.558882998     28063.55 
46565.604471828     27114.85 
47031.260516546 26420.333333333 
47501.573121712      25367.1 
47976.588852929      24567.5 
48456.354741458 23600.833333333 
48940.918288873     22680.25 
49430.327471761 21818.133333333 
49924.630746479        20965 
50423.877053944      20184.5 
50928.115824483      19197.7 
51437.396982728 18698.966666667 
51951.770952555     18101.85 
52471.288662081 17358.366666667 
52996.001548702 16696.666666667 
53525.961564189      15958.2 
54061.221179831      15531.9 
54601.833391629 14870.966666667 
55147.851725545     14232.95 
55699.330242801 13870.133333333 
56256.323545229      13308.8 
56818.886780681        12672 
57387.075648488      12263.4 
57960.946404973      11775.8 
58540.555869022 11209.433333333 
59125.961427713 10773.966666667 
59717.22104199 10461.433333333 
60314.39325241 10065.956666667 
60917.537184934 9687.0433333333 
61526.712556783      9326.78 
62141.979682351 8977.7066666667 
62763.399479174 8571.2633333333 
63391.033473966 8343.8066666667 
64024.943808706 7986.0414285714 
64665.193246793      7709.64 
65311.845179261      7442.42 
65964.963631053     7097.585 
66624.613267364      6854.07 
67290.859400038      6564.87 
67963.767994038     6316.355 
68643.405673978      6111.39 
69329.839730718     5897.925 
70023.138128025     5649.875 
70723.369509305     5393.865 
71430.603204399      5230.72 
72144.909236443      5048.19 
72866.358328807      4849.04 
73595.021912095     4642.855 
74330.972131216     4352.535 
75074.281852528     4267.995 
75825.024671053      4143.58 
76583.274917764      4018.45 
77349.107666942      3837.52 
78122.598743611      3706.44 
78903.824731047     3562.165 
79692.862978358     3424.185 
80489.791608141     3293.205 
81294.689524223      3146.95 
82107.636419465      3049.31 
82928.712783659      2935.46 
83757.999911496     2826.865 
84595.579910611      2699.02 
85441.535709717     2576.845 
86295.951066814      2466.96 
87158.910577482     2378.535 
88030.499683257      2311.82 
88910.80468009      2233.03 
89799.912726891 2135.9733333333 
90697.91185416      2046.43 
91604.890972701     1977.365 
92520.939882428 1892.8966666667 
93446.149281253      1802.14 
94380.610774065       1755.6 
95324.416881806       1684.5 
96277.661050624       1618.6 
97240.43766113 1553.9666666667 
98212.842037741     1489.245 
99194.970458119     1446.535 
100186.9201627      1412.58 
199060.83304441       91.181 
399467.9878358      5.70298 
594753.39981818       1.1191 
793700.71765891     0.351696 
997811.18987739     0.143157 
1193529.3359837     0.068654 
1399507.0114645    0.0368754 
