#  WAVELENGTH	        FLUX	
#  (ANGSTROM)	(ERG/CM2/S/A)	
############	############	
567.14833210579  8.15334E-25 
578.54801358112  2.76254E-24 
584.33349371693  9.14565E-24 
596.07859694064  2.87267E-23 
608.05977673914  8.67099E-23 
614.14037450653  2.51931E-22 
626.48459603412  7.06086E-22 
639.0769364144  1.91318E-21 
645.46770577855  5.01697E-21 
651.92238283633  1.06067E-20 
658.44160666469  2.00971E-20 
671.67628295866  4.88713E-20 
678.39304578824  1.15598E-19 
692.02874600859  2.66194E-19 
698.94903346867  5.97175E-19 
712.99790904139  1.41431E-18 
720.12788813181  3.02041E-18 
734.60245868325  5.86742E-18 
741.94848327009  1.20256E-17 
749.36796810279   2.4148E-17 
764.43026426165  4.75489E-17 
772.07456690427  9.18453E-17 
779.79531257331  1.74254E-16 
787.59326569905  3.24064E-16 
803.4238903396  5.94956E-16 
811.45812924299  1.07366E-15 
819.57271053542  1.90688E-15 
827.76843764078  3.33648E-15 
844.40658323736  5.75416E-15 
852.85064906973   9.7864E-15 
861.37915556043  1.64206E-14 
869.99294711603  2.71876E-14 
878.69287658719  4.44895E-14 
887.47980535306  7.19058E-14 
896.3546034066  1.14851E-13 
914.37133093507   1.67611E-9 
923.51504424442   6.57541E-9 
932.75019468686   8.79357E-9 
942.07769663373   1.31202E-8 
951.49847360007   2.12648E-8 
961.01345833607    3.4322E-8 
970.62359291943   4.34936E-8 
980.32982884862   7.26532E-8 
990.13312713711   1.04371E-7 
1000.0344584085   1.51017E-7 
1010.0348029926   1.98684E-7 
1020.1351510225   2.56673E-7 
1030.3365025327    4.8117E-7 
1040.639867558   6.83689E-7 
1051.0462662336   8.40567E-7 
1061.556728896   1.28797E-6 
1072.1722961849   1.75113E-6 
1082.8940191468   2.50217E-6 
1093.7229593382   3.11041E-6 
1104.6601889316  5.109215E-6 
1115.7067908209   8.48697E-6 
1126.8638587291   1.23776E-5 
1138.1324973164   1.65172E-5 
1149.5138222896   2.11603E-5 
1161.0089605125   2.75986E-5 
1172.6190501176   3.64281E-5 
1184.3452406188  4.642635E-5 
1196.188693025   5.02584E-5 
1208.1505799552   3.93466E-5 
1220.2320857548   8.25323E-5 
1232.4344066123  0.000134146 
1244.7587506785  0.000210459 
1257.2063381852  0.000294727 
1269.7784015671  0.000369425 
1282.4761855828  0.000501989 
1295.3009474386  0.000678703 
1308.253956913  0.000851138 
1321.3364964821   0.00101529 
1334.5498614469  0.001389705 
1347.8953600614    0.0019144 
1361.374313662   0.00230237 
1374.9880567986  0.003060575 
1388.7379373666   0.00403266 
1402.6253167403  0.005522765 
1416.6515699077   0.00723564 
1430.8180856068 0.0094222823529412 
1445.1262664628 0.011721761538462 
1459.5775291275    0.0155096 
1474.1733044187     0.019193 
1488.9150374629    0.0260944 
1503.8041878376 0.032640036363636 
1518.8422297159    0.0460038 
1534.0306520131    0.2145175 
1549.3709585332     0.424635 
1564.8646681186     0.703737 
1580.5133147997     1.372275 
1596.3184479477      1.65827 
1612.2816324272      2.02653 
1628.4044487515      2.78416 
1644.688493239     3.558955 
1661.1353781714 5.0520009090909 
1677.7467319531      14.4205 
1694.5241992726      25.8542 
1711.4694412654     34.70675 
1728.584135678     59.54385 
1745.8699770348      91.8921 
1763.3286768051     90.72905 
1780.9619635732      138.454 
1798.7715832089      171.374 
1816.759299041      215.001 
1834.9268920314       205.72 
1853.2761609517     274.2655 
1871.8089225613      353.208 
1890.5270117869     482.7345 
1909.4322819047      565.467 
1928.5266047238      553.973 
1947.811870771 922.37318181818 
1967.2899894787 1064.1235294118 
1986.9628893735 1176.0376190476 
2006.8325182673     1206.245 
2026.9008434499     1616.935 
2047.1698518844     1837.675 
2067.6415504033     2220.212 
2088.3179659073      5678.49 
2109.2011455664      8096.33 
2130.293157022     10274.57 
2151.5960885923      10636.3 
2173.1120494782      12349.7 
2194.843169973 13448.666666667 
2216.7916016727      20889.3 
2238.9595176894     21985.85 
2261.3491128663     15914.25 
2283.962603995      25952.6 
2306.8022300349     23381.55 
2329.8702523353     17456.55 
2353.1689548586      20761.3 
2376.7006444072     14954.35 
2400.4676508513     19094.65 
2424.4723273598        48295 
2448.7170506334      53350.3 
2473.2042211397 23869.966666667 
2497.9362633511        25743 
2522.9156259846 26510.381481481 
2548.1447822445     107874.7 
2573.6262300669     109198.3 
2599.3624923676 72891.333333333 
2625.3561172913       292969 
2651.6096784642 404960.66666667 
2678.1257752488       358050 
2704.9070330013 245804.33333333 
2731.9561033313       157864 
2759.2756643647 201229.66666667 
2786.8684210083      46436.8 
2814.7371052184       235734 
2842.8844762706 102512.06666667 
2871.3133210333 431791.33333333 
2900.0264542436       776630 
2929.026718786       666016 
2958.3169859739       630212 
2987.9001558336     625527.5 
3017.779157392       714444 
3047.9569489659     804867.5 
3078.4365184556       769591 
3109.2208836401       894867 
3140.3130924765     888695.5 
3171.7162234013       833975 
3203.4333856353     836290.5 
3235.4677194916      1178360 
3267.8223966866      1420140 
3300.5006206534      1249385 
3333.50562686      1176200 
3366.8406831286       866402 
3400.5090899598      1098800 
3434.5141808594      1201010 
3468.859322668      1373495 
3503.5479158947      1510880 
3538.5833950537      1402820 
3573.9692290042      1153070 
3609.7089212942      1521872 
3645.8060105072 1860146.6666667 
3682.2640706123      1834485 
3719.0867113184      1292695 
3756.2775784316      1819595 
3793.8403542159    1301900.5 
3831.778757758      1150060 
3870.0965453356      1605700 
3908.797510789      1470165 
3947.8854858969      1520515 
3987.3643407558      2717270 
4027.2379841634      2681810 
4067.510364005      2788300 
4108.1854676451      2897420 
4149.2673223215      2705670 
4190.7599955447      2731290 
4232.6675955002      2588845 
4274.9942714552      2029160 
4317.7442141697      2852510 
4360.9216563114      2836560 
4404.5308728746      3184855 
4448.5761816033      3535200 
4493.0619434193      3860920 
4537.9925628535      3940950 
4583.3724884821      3933310 
4629.2062133669      4029420 
4675.4982755006      4018615 
4722.2532582556      4129810 
4769.4757908381 4156713.3333333 
4817.1705487465      4108490 
4865.342254234 3957556.6666667 
4913.9956767763      4067105 
4963.1356335441      3956250 
5012.7669898795      3959210 
5062.8946597783 4011013.3333333 
5113.5236063761      3835005 
5164.6588424398 3594203.3333333 
5216.3054308642      4039645 
5268.4684851729      4027210 
5321.1531700246 4074186.6666667 
5374.3647017249      4049735 
5428.1083487421 4120766.6666667 
5482.3894322295 4134326.6666667 
5537.2133265518 4122386.6666667 
5592.5854598173      4164340 
5648.5113144155 4143603.3333333 
5704.9964275597      4170040 
5762.0463918353      4172190 
5819.6668557536 4197863.3333333 
5877.8635243112 4039733.3333333 
5936.6421595543 4137236.6666667 
5996.0085811498 4097243.3333333 
6055.9686669613 4053993.3333333 
6116.5283536309 3885423.3333333 
6177.6936371672 3962386.6666667 
6239.4705735389 3898486.6666667 
6301.8652792743 3882643.3333333 
6364.883932067      3869920 
6428.5327713877      3807305 
6492.8180991016 3822546.6666667 
6557.7462800926      3716850 
6623.3237428935 3762016.6666667 
6689.5569803225    3739722.5 
6756.4525501257      3697420 
6824.0170756269    3658967.5 
6892.2572463832 3615783.3333333 
6961.179818847      3557145 
7030.7916170355 3527366.6666667 
7101.0995332059    3463097.5 
7172.1105285379 3396226.6666667 
7243.8316338233    3386882.5 
7316.2699501615 3363363.3333333 
7389.4326496631    3292052.5 
7463.3269761598      3286970 
7537.9602459214    3254847.5 
7613.3398483806 3204523.3333333 
7689.4732468644    3167412.5 
7766.367979333      3151695 
7844.0316591264    3092327.5 
7922.4719757176      3019285 
8001.6966954748    2989457.5 
8081.7136624296    2940132.5 
8162.5307990539    2880777.5 
8244.1561070444    2869777.5 
8326.5976681148      2800835 
8409.863644796      2771114 
8493.9622812439    2615957.5 
8578.9019040564    2702467.5 
8664.6909230969      2591336 
8751.3378323279      2617570 
8838.8512106512      2597385 
8927.2397227577      2542536 
9016.5121199853    2516057.5 
9106.6772411851      2455094 
9197.744013597      2377415 
9289.721453733      2371756 
9382.6186682703      2311390 
9476.444854953      2291380 
9571.2093035025    2259347.5 
9666.9213965375      2225196 
9763.5906105029      2197706 
9861.226516608      2170742 
9959.838781774 2145444.6666667 
10059.437169592      2103605 
10160.031541288      2065890 
10261.631856701      2036025 
10364.248175268      2002235 
10467.89065702      1970930 
10572.56956359      1921020 
10678.295259226      1880495 
10785.078211819      1833015 
10892.928993937      1782740 
11001.858283876      1750095 
11111.876866715      1731240 
11222.995635382 1703926.6666667 
11335.225591736      1666345 
11448.577847653      1662195 
11563.06362613 1620026.6666667 
11678.694262391      1601100 
11795.481205015      1563930 
11913.436017065      1540000 
12032.570377236      1514510 
12152.896081008      1507245 
12274.425041818 1477353.3333333 
12397.169292236      1452470 
12521.140985159      1427350 
12646.35239501      1402035 
12772.81591896      1369620 
12900.54407815 1349676.6666667 
13029.549518932      1326735 
13159.845014121 1302226.6666667 
13291.443464262      1284250 
13424.357898905      1269920 
13558.601477894 1238603.3333333 
13694.187492673      1221730 
13831.129367599      1202405 
13969.440661275 1181756.6666667 
14109.135067888 1148596.6666667 
14250.226418567      1128980 
14392.728682753 1108373.3333333 
14536.65596958 1092654.3333333 
14682.022529276 1070486.6666667 
14828.842754569      1055960 
14977.131182115 1030083.3333333 
15126.902493936 1027853.3333333 
15278.171518875      1013770 
15430.953234064 995073.33333333 
15585.262766404 977557.33333333 
15741.115394068 941099.33333333 
15898.526548009       938556 
16057.511813489       912523 
16218.086931624     901661.5 
16380.26780094       867461 
16544.07047895     858019.5 
16709.511183739     812845.5 
16876.606295577       804199 
17045.372358532       772688 
17215.826082118       733760 
17387.984342939       714470 
17561.864186368       695372 
17737.482828232     675664.5 
17914.857656514     650344.5 
18094.006233079       617811 
18274.94629541       598783 
18457.695758364       583747 
18642.272715948     556621.5 
18828.695443107     540999.5 
19016.982397539       526076 
19207.152221514       505560 
19399.223743729       481459 
19593.215981166     468746.5 
19789.148140978       452967 
19987.039622388       440605 
20186.910018612     422070.5 
20388.779118798       410374 
20592.666909986       394443 
20798.593579086       380880 
21006.579514877       369514 
21216.645310025       357146 
21428.811763126     345890.5 
21643.099880757       328023 
21859.530879564       317038 
22078.12618836     307663.5 
22298.907450244     297486.5 
22521.896524746       287640 
22747.115489993 273168.33333333 
22974.586644893       262194 
23204.332511342     246810.5 
23436.375836456 239041.66666667 
23670.73959482     228144.5 
23907.446990769       224598 
24146.521460676 213615.33333333 
24387.986675283     204635.5 
24631.866542036       199168 
24878.185207456     194024.5 
25126.967059531 186230.66666667 
25378.236730126     179996.5 
25632.019097427 174309.33333333 
25888.339288402     169350.5 
26147.222681286 162542.66666667 
26408.694908098       156433 
26672.781857179       152535 
26939.509675751       147658 
27208.904772509       142133 
27480.993820234 136369.33333333 
27755.803758436       132280 
28033.361796021 128067.66666667 
28313.695413981 123319.66666667 
28596.832368121 118371.66666667 
28882.800691802 114237.33333333 
29171.62869872 109681.33333333 
29463.344985707 105810.33333333 
29757.978435564       101879 
30055.55821992 98030.533333333 
30356.113802119      94500.3 
30659.67494014      91145.7 
30966.271689541      87852.7 
31275.934406437 84734.533333333 
31588.693750501 81821.766666667 
31904.580688006      79153.6 
32223.626494886     75805.55 
32545.862759835        73254 
32871.321387434     70509.55 
33200.034601308     67473.35 
33532.034947321      65358.7 
33867.355296794     62973.65 
34206.028849762     60462.75 
34548.08913826      58542.3 
34893.570029642      56672.6 
35242.505729939     54232.15 
35594.930787238     51899.95 
35950.880095111     49892.65 
36310.388896062      48202.1 
36673.492785022     46655.65 
37040.227712872     44750.45 
37410.629990001     42907.65 
37784.736289901      41369.3 
38162.5836528      39820.7 
38544.209489328      38235.7 
38929.651584221      36815.6 
39318.948100064     35387.05 
39712.137581064      33956.3 
40109.258956875     32721.15 
40510.351546444      31557.2 
40915.455061908      30445.7 
41324.609612527      29309.1 
41737.855708653     28200.65 
42155.234265739     27275.85 
42576.786608396     25994.45 
43002.55447448      24568.1 
43432.580019225     23207.75 
43866.905819417      21957.3 
44305.574877612      20718.6 
44748.630626388     20088.45 
45196.116932652        19132 
45648.078101978 18415.133333333 
46104.558882998     17704.35 
46565.604471828      17251.6 
47031.260516546 16644.633333333 
47501.573121712     16032.35 
47976.588852929      15570.7 
48456.354741458 15016.533333333 
48940.918288873      14457.3 
49430.327471761 13939.366666667 
49924.630746479      13426.8 
50423.877053944 12950.033333333 
50928.115824483     12486.65 
51437.396982728 12095.633333333 
51951.770952555        11645 
52471.288662081 11297.233333333 
52996.001548702 10825.033333333 
53525.961564189      10486.7 
54061.221179831      10126.2 
54601.833391629 9728.6233333333 
55147.851725545     9434.945 
55699.330242801 9138.1433333333 
56256.323545229      8786.78 
56818.886780681      8451.59 
57387.075648488      8146.24 
57960.946404973 7837.7566666667 
58540.555869022      7539.82 
59125.961427713 7268.7166666667 
59717.22104199      7011.03 
60314.39325241       6744.2 
60917.537184934      6498.83 
61526.712556783      6279.39 
62141.979682351 6043.8666666667 
62763.399479174      5834.74 
63391.033473966 5630.7133333333 
64024.943808706 5392.5814285714 
64665.193246793      5212.16 
65311.845179261      5036.39 
65964.963631053     4806.735 
66624.613267364      4643.22 
67290.859400038      4484.79 
67963.767994038     4286.885 
68643.405673978      4143.07 
69329.839730718     4006.475 
70023.138128025      3831.59 
70723.369509305     3668.185 
71430.603204399      3549.57 
72144.909236443      3436.48 
72866.358328807      3292.34 
73595.021912095      3155.45 
74330.972131216     3023.125 
75074.281852528     2902.655 
75825.024671053       2814.3 
76583.274917764     2729.175 
77349.107666942      2621.13 
78122.598743611     2517.985 
78903.824731047     2419.865 
79692.862978358      2326.23 
80489.791608141      2237.14 
81294.689524223     2152.015 
82107.636419465      2072.15 
82928.712783659      1994.77 
83757.999911496     1921.475 
84595.579910611 1834.6833333333 
85441.535709717      1752.17 
86295.951066814      1689.82 
87158.910577482     1629.885 
88030.499683257      1572.43 
88910.80468009     1517.905 
89799.912726891      1453.07 
90697.91185416     1391.005 
91604.890972701      1344.55 
92520.939882428      1288.72 
93446.149281253     1235.625 
94380.610774065      1195.03 
95324.416881806      1146.87 
96277.661050624       1100.7 
97240.43766113 1056.9233333333 
98212.842037741      1015.78 
99194.970458119      983.952 
100186.9201627      961.332 
199060.83304441      62.4552 
399467.9878358      3.93636 
594753.39981818     0.774976 
793700.71765891     0.243874 
997811.18987739    0.0993212 
1193529.3359837    0.0476382 
1399507.0114645     0.025585 
