#  WAVELENGTH	        FLUX	
#  (ANGSTROM)	(ERG/CM2/S/A)	
############	############	
        90.9  3.50592E-19 
    92.72709   2.2526E-18 
95.53681355409  1.31626E-17 
97.457103506527  3.73466E-17 
99.415991287008   1.2359E-16 
101.41425271188  5.27617E-16 
103.45267919139  1.50427E-15 
105.53207804313  4.14523E-15 
107.6532728118  1.29824E-14 
109.81710359532   5.2982E-14 
113.14467165136  3.12812E-13 
117.73879903054  1.82427E-12 
120.10534889105  8.42426E-12 
123.7446610678  3.58177E-11 
126.23192875526  8.89307E-11 
127.49424804281  1.46652E-10 
130.05688242847  3.22373E-10 
131.35745125276   6.4432E-10 
132.67102576529   1.09822E-9 
135.33771338317   2.79183E-9 
139.43858143639   8.07335E-9 
142.24129692326   2.44917E-8 
146.55135046134   7.95107E-8 
150.99200293167   2.37016E-7 
154.02694219059   7.47796E-7 
158.69411256591   1.91327E-6 
161.88386422848   4.26686E-6 
165.13772989948   1.11608E-5 
170.14156825316   2.98907E-5 
171.84298393569   5.91302E-5 
175.2970279128  0.000121703 
178.82049817385  0.000243937 
180.60870315558  0.000329058 
186.0813274699  0.000770479 
189.82156215205   0.00190136 
193.6369755513    0.0031778 
197.52907875988   0.00685287 
201.49941324296    0.0119754 
203.51440737539    0.0199208 
209.68109743327    0.0461402 
216.03464436659     0.105308 
218.19499081026     0.173752 
222.58071012555     0.267413 
224.8065172268     0.439466 
229.32512822306      401.299 
233.93456330034      992.121 
238.63664802268      1672.85 
245.86757709442      3008.78 
250.80951539401      5057.83 
255.85078665343      6465.05 
258.40929451997        11210 
263.60332133982      16819.8 
266.23935455322      24781.7 
271.59076557974      34921.9 
277.04973996789      46195.3 
282.61843974125      90786.8 
288.29907038004       132290 
294.09388169468       179735 
300.00516871675       232826 
306.03527260795       437355 
315.30844740325       978930 
324.86260866801      1466980 
334.70627057326      2494600 
344.8482052779      3842470 
355.29745074603      6739510 
362.43892950602     10904900 
373.42119150899     13806300 
384.7362270329     19575200 
392.46942519626     27955700 
404.36164124913     35565900 
412.48931023824     45470100 
420.78034537403     52611500 
429.23803031605     62838000 
437.8657147254     79894100 
446.66681559138     96026800 
455.64481858477    109620000 
469.4513122327    132582000 
478.88728360858    157717000 
488.51291800911    182560000 
498.3320276611    219091000 
503.31534793771    714187000 
508.34850141708   3711190000 
518.56630629557   3512490000 
528.98948905211   3278440000 
539.62217778206   3029070000 
545.01839955988   3599910000 
555.97326939103   4202430000 
567.14833210579   4407490000 
578.54801358112   4045610000 
584.33349371693   4387430000 
596.07859694064   3993960000 
608.05977673914   4521470000 
614.14037450653   5080760000 
626.48459603412   5027640000 
639.0769364144   4952300000 
645.46770577855   5028660000 
651.92238283633   4774430000 
658.44160666469   5210300000 
671.67628295866   5465610000 
678.39304578824   4887610000 
692.02874600859   5841520000 
698.94903346867   5280240000 
712.99790904139   6196200000 
720.12788813181   6125030000 
734.60245868325   6201690000 
741.94848327009   6261920000 
749.36796810279   6278160000 
764.43026426165   6418440000 
772.07456690427   6572740000 
779.79531257331   6817790000 
787.59326569905   6832750000 
803.4238903396   6745990000 
811.45812924299   6762390000 
819.57271053542   7038380000 
827.76843764078   6268900000 
844.40658323736   6949220000 
852.85064906973   6979830000 
861.37915556043   7163780000 
869.99294711603   7263730000 
878.69287658719   7408350000 
887.47980535306   7508030000 
896.3546034066   7397320000 
914.37133093507   8784850000 
923.51504424442  33449000000 
932.75019468686  52965500000 
942.07769663373  71880600000 
951.49847360007  77112000000 
961.01345833607  86267100000 
970.62359291943  41092000000 
980.32982884862  74629700000 
990.13312713711  69019700000 
1000.0344584085  71644100000 
1010.0348029926  72784500000 
1020.1351510225  55816300000 
1030.3365025327  69161800000 
1040.639867558  77428000000 
1051.0462662336  74416900000 
1061.556728896  66416300000 
1072.1722961849  68309500000 
1082.8940191468  63321600000 
1093.7229593382  66980500000 
1104.6601889316  63619700000 
1115.7067908209  54829600000 
1126.8638587291  60719700000 
1138.1324973164  57525700000 
1149.5138222896  56406900000 
1161.0089605125  55062300000 
1172.6190501176  40076300000 
1184.3452406188  49989350000 
1196.188693025  46649500000 
1208.1505799552  35852800000 
1220.2320857548  45751000000 
1232.4344066123  47962300000 
1244.7587506785  46112000000 
1257.2063381852  46392600000 
1269.7784015671  46437000000 
1282.4761855828  44318200000 
1295.3009474386  42694000000 
1308.253956913  43898900000 
1321.3364964821  42243200000 
1334.5498614469  40928850000 
1347.8953600614  40061000000 
1361.374313662  38721800000 
1374.9880567986  37446450000 
1388.7379373666  31274300000 
1402.6253167403  33140250000 
1416.6515699077  31928800000 
1430.8180856068 33024570588.235 
1445.1262664628 31910584615.385 
1459.5775291275  30779400000 
1474.1733044187  30399700000 
1488.9150374629  29372800000 
1503.8041878376 28197877272.727 
1518.8422297159  27198300000 
1534.0306520131  23447700000 
1549.3709585332  22081700000 
1564.8646681186  23756050000 
1580.5133147997  23946350000 
1596.3184479477  22450000000 
1612.2816324272  21766900000 
1628.4044487515  21945200000 
1644.688493239  21600000000 
1661.1353781714 21217513636.364 
1677.7467319531  21376000000 
1694.5241992726  20525050000 
1711.4694412654  19328900000 
1728.584135678  19313250000 
1745.8699770348  18816800000 
1763.3286768051  18296500000 
1780.9619635732  17905550000 
1798.7715832089  17390750000 
1816.759299041  16913500000 
1834.9268920314  16334150000 
1853.2761609517  15822250000 
1871.8089225613  15216050000 
1890.5270117869  14554800000 
1909.4322819047  13934800000 
1928.5266047238  14111550000 
1947.811870771 13349809090.909 
1967.2899894787 13467088235.294 
1986.9628893735 12872609523.81 
2006.8325182673  12866300000 
2026.9008434499  12275150000 
2047.1698518844  10335050000 
2067.6415504033  10605820000 
2088.3179659073  11148550000 
2109.2011455664  11146100000 
2130.293157022  10821300000 
2151.5960885923  10546100000 
2173.1120494782  10286000000 
2194.843169973   9995300000 
2216.7916016727   9650180000 
2238.9595176894   9330020000 
2261.3491128663   9139020000 
2283.962603995   8609060000 
2306.8022300349   8481220000 
2329.8702523353   8257015000 
2353.1689548586 7973823333.3333 
2376.7006444072   7612315000 
2400.4676508513   7484725000 
2424.4723273598   7237870000 
2448.7170506334   7004245000 
2473.2042211397 6456863333.3333 
2497.9362633511 6404243043.4783 
2522.9156259846 6319152222.2222 
2548.1447822445   6123920000 
2573.6262300669   5940320000 
2599.3624923676 5732813333.3333 
2625.3561172913   5549520000 
2651.6096784642 5352333333.3333 
2678.1257752488   5188690000 
2704.9070330013 5026703333.3333 
2731.9561033313 4844903333.3333 
2759.2756643647 4683566666.6667 
2786.8684210083   4511335000 
2814.7371052184 4399823333.3333 
2842.8844762706   4261340000 
2871.3133210333 4111853333.3333 
2900.0264542436   3984150000 
2929.026718786   3846670000 
2958.3169859739   3721350000 
2987.9001558336   3583450000 
3017.779157392   3461910000 
3047.9569489659   3359580000 
3078.4365184556   3229540000 
3109.2208836401   3142200000 
3140.3130924765   3004885000 
3171.7162234013   2898710000 
3203.4333856353   2812060000 
3235.4677194916   2732680000 
3267.8223966866   2642335000 
3300.5006206534   2534800000 
3333.50562686   2451990000 
3366.8406831286   2383310000 
3400.5090899598   2288185000 
3434.5141808594   2209960000 
3468.859322668   2148490000 
3503.5479158947   2070550000 
3538.5833950537   1994320000 
3573.9692290042   1929150000 
3609.7089212942   1869420000 
3645.8060105072 1767906666.6667 
3682.2640706123   1696905000 
3719.0867113184   1632385000 
3756.2775784316   1642920000 
3793.8403542159   1618695000 
3831.778757758   1679035000 
3870.0965453356   1458360000 
3908.797510789   1613660000 
3947.8854858969   1457800000 
3987.3643407558   1504175000 
4027.2379841634   1441025000 
4067.510364005   1370080000 
4108.1854676451   1276180000 
4149.2673223215 1297683333.3333 
4190.7599955447   1247230000 
4232.6675955002   1198695000 
4274.9942714552   1156785000 
4317.7442141697   1042730000 
4360.9216563114   1075690000 
4404.5308728746   1049510000 
4448.5761816033   1002091000 
4493.0619434193    970147500 
4537.9925628535    937779500 
4583.3724884821    908284000 
4629.2062133669    865250000 
4675.4982755006    830915500 
4722.2532582556    815506000 
4769.4757908381    786144000 
4817.1705487465    742091000 
4865.342254234    702011000 
4913.9956767763    694765000 
4963.1356335441    673284000 
5012.7669898795    649677000 
5062.8946597783 627909333.33333 
5113.5236063761    604937500 
5164.6588424398 584052666.66667 
5216.3054308642    563547000 
5268.4684851729 544017333.33333 
5321.1531700246    521810000 
5374.3647017249    502956000 
5428.1083487421 487005666.66667 
5482.3894322295 467513333.33333 
5537.2133265518    448962000 
5592.5854598173    434309000 
5648.5113144155 419113666.66667 
5704.9964275597    400451000 
5762.0463918353 385514333.33333 
5819.6668557536 368679666.66667 
5877.8635243112 357869333.33333 
5936.6421595543 345853333.33333 
5996.0085811498    333487000 
6055.9686669613 321415666.66667 
6116.5283536309 309672666.66667 
6177.6936371672 298688666.66667 
6239.4705735389    288067000 
6301.8652792743 277905666.66667 
6364.883932067    268230000 
6428.5327713877    257370750 
6492.8180991016 245442333.33333 
6557.7462800926 230469333.33333 
6623.3237428935 230183666.66667 
6689.5569803225    221324250 
6756.4525501257    213249000 
6824.0170756269    205163000 
6892.2572463832    197442000 
6961.179818847    190100250 
7030.7916170355    182306000 
7101.0995332059    176334500 
7172.1105285379 169703333.33333 
7243.8316338233    163552000 
7316.2699501615 157984666.66667 
7389.4326496631    152406250 
7463.3269761598    146263500 
7537.9602459214    140484250 
7613.3398483806    135693000 
7689.4732468644    131051000 
7766.367979333    126013750 
7844.0316591264    121255000 
7922.4719757176    116676000 
8001.6966954748    112262750 
8081.7136624296    107995750 
8162.5307990539    103827000 
8244.1561070444     99902700 
8326.5976681148     96253400 
8409.863644796     92332580 
8493.9622812439     88613550 
8578.9019040564     85348000 
8664.6909230969     81444020 
8751.3378323279     80562150 
8838.8512106512     75762675 
8927.2397227577     74112000 
9016.5121199853     71700450 
9106.6772411851     70168860 
9197.744013597     64725275 
9289.721453733     65069780 
9382.6186682703     62488400 
9476.444854953     57892500 
9571.2093035025     57746100 
9666.9213965375     55785500 
9763.5906105029     53693100 
9861.226516608     51597500 
9959.838781774     49127880 
10059.437169592     46855350 
10160.031541288     46169800 
10261.631856701     44397150 
10364.248175268     42831500 
10467.89065702     41272750 
10572.56956359     39406700 
10678.295259226     37672100 
10785.078211819     36160800 
10892.928993937     33758000 
11001.858283876     33776300 
11111.876866715     32690150 
11222.995635382 31299733.333333 
11335.225591736     29989300 
11448.577847653     28989950 
11563.06362613 27786533.333333 
11678.694262391     26664400 
11795.481205015     25798500 
11913.436017065 24707366.666667 
12032.570377236     23784800 
12152.896081008     23034900 
12274.425041818     22139300 
12397.169292236     21283400 
12521.140985159     20458900 
12646.35239501     19696350 
12772.81591896     18475300 
12900.54407815 18086033.333333 
13029.549518932     17451850 
13159.845014121 16817533.333333 
13291.443464262     16208200 
13424.357898905 15625933.333333 
13558.601477894 14967633.333333 
13694.187492673 14340833.333333 
13831.129367599     13842000 
13969.440661275 13367033.333333 
14109.135067888 12822866.666667 
14250.226418567     12305400 
14392.728682753     11814000 
14536.65596958 11344556.666667 
14682.022529276 10900233.333333 
14828.842754569     10480100 
14977.131182115 10073006.666667 
15126.902493936      9693320 
15278.171518875 9322843.3333333 
15430.953234064 8968633.3333333 
15585.262766404 8630066.6666667 
15741.115394068      8306500 
15898.526548009 8001472.8571429 
16057.511813489      7617010 
16218.086931624      7442035 
16380.26780094      7055620 
16544.07047895      6955380 
16709.511183739      6526270 
16876.606295577      6406440 
17045.372358532      6175660 
17215.826082118      5814970 
17387.984342939      5642230 
17561.864186368      5463840 
17737.482828232      5284560 
17914.857656514      5057005 
18094.006233079      4749340 
18274.94629541      4637920 
18457.695758364      4488970 
18642.272715948      4265330 
18828.695443107      4171100 
19016.982397539      3996820 
19207.152221514      3838945 
19399.223743729      3613865 
19593.215981166      3543125 
19789.148140978      3404625 
19987.039622388      3272865 
20186.910018612      3147340 
20388.779118798      3025050 
20592.666909986      2913845 
20798.593579086      2805170 
21006.579514877      2697510 
21216.645310025      2602725 
21428.811763126      2506530 
21643.099880757 2362283.3333333 
21859.530879564      2290315 
22078.12618836      2209635 
22298.907450244      2132770 
22521.896524746      2059045 
22747.115489993 1971363.3333333 
22974.586644893      1887980 
23204.332511342      1824895 
23436.375836456      1749610 
23670.73959482      1677890 
23907.446990769      1623195 
24146.521460676 1557963.3333333 
24387.986675283      1495730 
24631.866542036      1436190 
24878.185207456      1380010 
25126.967059531      1326590 
25378.236730126      1278465 
25632.019097427 1227526.6666667 
25888.339288402      1182425 
26147.222681286      1118760 
26408.694908098 1089363.3333333 
26672.781857179      1039435 
26939.509675751 1012830.3333333 
27208.904772509       969107 
27480.993820234       919099 
27755.803758436       895711 
28033.361796021 864562.66666667 
28313.695413981       828815 
28596.832368121 785466.33333333 
28882.800691802       762965 
29171.62869872       732444 
29463.344985707       703440 
29757.978435564       675838 
30055.55821992       644061 
30356.113802119 621475.66666667 
30659.67494014       600743 
30966.271689541       578097 
31275.934406437       556493 
31588.693750501       535873 
31904.580688006     516818.8 
32223.626494886     494380.5 
32545.862759835       476511 
32871.321387434       453622 
33200.034601308     438248.5 
33532.034947321       423274 
33867.355296794     408627.5 
34206.028849762     390040.5 
34548.08913826       376764 
34893.570029642       364080 
35242.505729939     347976.5 
35594.930787238     332748.5 
35950.880095111       318333 
36310.388896062       307917 
36673.492785022     297953.5 
37040.227712872       283800 
37410.629990001       271312 
37784.736289901       262134 
38162.5836528     251455.5 
38544.209489328     241388.5 
38929.651584221     231253.5 
39318.948100064     222594.5 
39712.137581064       213475 
40109.258956875       202765 
40510.351546444     197569.5 
40915.455061908       190012 
41324.609612527       181818 
41737.855708653     175947.5 
42155.234265739       169474 
42576.786608396       163175 
43002.55447448       157322 
43432.580019225     150665.5 
43866.905819417 144717.33333333 
44305.574877612     138570.5 
44748.630626388       133766 
45196.116932652     129122.5 
45648.078101978 123597.66666667 
46104.558882998     116798.5 
46565.604471828     113015.5 
47031.260516546 109632.33333333 
47501.573121712       105116 
47976.588852929       101675 
48456.354741458 97576.466666667 
48940.918288873     93668.65 
49430.327471761      89966.3 
49924.630746479     86432.85 
50423.877053944        83082 
50928.115824483     78925.45 
51437.396982728 76806.433333333 
51951.770952555     73940.05 
52471.288662081 71180.033333333 
52996.001548702      68031.6 
53525.961564189     65508.85 
54061.221179831 63159.766666667 
54601.833391629 60438.266666667 
55147.851725545     58232.25 
55699.330242801 56236.566666667 
56256.323545229      53886.8 
56818.886780681      51579.7 
57387.075648488      49543.3 
57960.946404973 47541.466666667 
58540.555869022      45228.4 
59125.961427713      43646.4 
59717.22104199 42108.166666667 
60314.39325241      40468.2 
60917.537184934 38906.166666667 
61526.712556783        37419 
62141.979682351      35985.4 
62763.399479174 34485.333333333 
63391.033473966      33363.6 
64024.943808706 31879.857142857 
64665.193246793      30769.8 
65311.845179261     29661.55 
65964.963631053        28256 
66624.613267364        27254 
67290.859400038     26160.85 
67963.767994038     25089.95 
68643.405673978        24226 
69329.839730718     23401.95 
70023.138128025     22354.65 
70723.369509305      21365.7 
71430.603204399      20657.4 
72144.909236443      19981.9 
72866.358328807     19121.45 
73595.021912095      18294.4 
74330.972131216      17179.8 
75074.281852528      16787.1 
75825.024671053      16278.1 
76583.274917764     15775.75 
77349.107666942      15124.4 
78122.598743611     14524.55 
78903.824731047      13945.5 
79692.862978358      13395.1 
80489.791608141      12871.5 
81294.689524223     12354.65 
82107.636419465     11898.45 
82928.712783659      11446.5 
83757.999911496     11015.95 
84595.579910611 10506.233333333 
85441.535709717     10024.05 
86295.951066814     9631.225 
87158.910577482      9234.54 
88030.499683257      8976.55 
88910.80468009     8658.095 
89799.912726891      8280.36 
90697.91185416      7921.73 
91604.890972701       7648.8 
92520.939882428      7324.86 
93446.149281253     6982.825 
94380.610774065      6782.13 
95324.416881806 6503.3366666667 
96277.661050624     6237.395 
97240.43766113 5985.8466666667 
98212.842037741         5746 
99194.970458119       5563.1 
100186.9201627      5430.29 
199060.83304441      337.455 
399467.9878358      20.6142 
594753.39981818      4.00727 
793700.71765891      1.25292 
997811.18987739     0.508397 
1193529.3359837     0.243302 
1399507.0114645     0.130489 
