#  WAVELENGTH	        FLUX	
#  (ANGSTROM)	(ERG/CM2/S/A)	
############	############	
827.76843764078  1.63195E-25 
844.40658323736  3.77562E-25 
852.85064906973   8.5434E-25 
861.37915556043  1.89421E-24 
869.99294711603  4.11738E-24 
878.69287658719  8.78641E-24 
887.47980535306  1.84385E-23 
896.3546034066  3.78821E-23 
914.37133093507  4.08761E-17 
923.51504424442   2.1955E-16 
932.75019468686  2.73068E-16 
942.07769663373  5.87776E-16 
951.49847360007  5.26085E-16 
961.01345833607  1.19833E-15 
970.62359291943  7.56095E-16 
980.32982884862  2.67692E-15 
990.13312713711  4.58611E-15 
1000.0344584085  5.30768E-15 
1010.0348029926   4.5984E-15 
1020.1351510225  8.21392E-15 
1030.3365025327   2.5396E-14 
1040.639867558  4.95602E-14 
1051.0462662336  6.21743E-14 
1061.556728896  1.93911E-13 
1072.1722961849  2.82431E-13 
1082.8940191468   6.4128E-13 
1093.7229593382  9.64555E-13 
1104.6601889316 1.733225E-12 
1115.7067908209  5.61631E-12 
1126.8638587291  1.03273E-11 
1138.1324973164  1.79488E-11 
1149.5138222896  2.65192E-11 
1161.0089605125  3.24067E-11 
1172.6190501176  4.71301E-11 
1184.3452406188 4.178505E-11 
1196.188693025  6.11373E-12 
1208.1505799552  1.31024E-12 
1220.2320857548  9.73843E-12 
1232.4344066123  8.29945E-11 
1244.7587506785  5.61886E-10 
1257.2063381852   1.09279E-9 
1269.7784015671   1.82852E-9 
1282.4761855828   2.35496E-9 
1295.3009474386   3.63031E-9 
1308.253956913   5.01907E-9 
1321.3364964821   5.94593E-9 
1334.5498614469   8.40951E-9 
1347.8953600614   1.33709E-8 
1361.374313662   1.50165E-8 
1374.9880567986  1.821365E-8 
1388.7379373666   2.38774E-8 
1402.6253167403   4.07877E-8 
1416.6515699077   4.94849E-8 
1430.8180856068 9.3704117647059E-8 
1445.1262664628 1.0595888461538E-7 
1459.5775291275   1.81079E-7 
1474.1733044187  1.987175E-7 
1488.9150374629   3.83099E-7 
1503.8041878376 4.8978431818182E-7 
1518.8422297159   8.09179E-7 
1534.0306520131 1.0648205E-6 
1549.3709585332   1.35296E-6 
1564.8646681186   1.91566E-6 
1580.5133147997   2.64712E-6 
1596.3184479477   2.71694E-6 
1612.2816324272  2.795545E-6 
1628.4044487515    3.9685E-6 
1644.688493239   5.20714E-6 
1661.1353781714 8.6209922727273E-6 
1677.7467319531   1.55948E-5 
1694.5241992726  2.513655E-5 
1711.4694412654     3.601E-5 
1728.584135678  6.130905E-5 
1745.8699770348   7.10925E-5 
1763.3286768051  9.110845E-5 
1780.9619635732 0.0001617565 
1798.7715832089  0.000232192 
1816.759299041  0.000334323 
1834.9268920314 0.0003833285 
1853.2761609517 0.0005015185 
1871.8089225613  0.000702553 
1890.5270117869  0.001062865 
1909.4322819047  0.001512095 
1928.5266047238 0.0015211205 
1947.811870771 0.0032235309090909 
1967.2899894787 0.0045920947058824 
1986.9628893735 0.0052771628571429 
2006.8325182673   0.00669366 
2026.9008434499   0.00860578 
2047.1698518844   0.01055345 
2067.6415504033 0.0129058945 
2088.3179659073   0.02769265 
2109.2011455664   0.03370925 
2130.293157022    0.0415376 
2151.5960885923   0.04711145 
2173.1120494782    0.0494238 
2194.843169973 0.082936266666667 
2216.7916016727   0.10253325 
2238.9595176894     0.176292 
2261.3491128663    0.1664885 
2283.962603995 0.23272466666667 
2306.8022300349     0.445366 
2329.8702523353     0.506525 
2353.1689548586 0.40544333333333 
2376.7006444072     0.788201 
2400.4676508513     1.171599 
2424.4723273598 1.8122666666667 
2448.7170506334     2.420695 
2473.2042211397      2.10883 
2497.9362633511 2.6756308695652 
2522.9156259846 7.0124181481481 
2548.1447822445     7.332395 
2573.6262300669       7.5108 
2599.3624923676 12.251453333333 
2625.3561172913     21.69495 
2651.6096784642      23.7735 
2678.1257752488      24.5558 
2704.9070330013 34.624066666667 
2731.9561033313 40.960466666667 
2759.2756643647 70.281066666667 
2786.8684210083     80.66575 
2814.7371052184 83.300633333333 
2842.8844762706 60.109966666667 
2871.3133210333 161.01233333333 
2900.0264542436      247.857 
2929.026718786     272.0535 
2958.3169859739       273.02 
2987.9001558336      364.594 
3017.779157392      481.083 
3047.9569489659      619.028 
3078.4365184556      710.841 
3109.2208836401     1030.445 
3140.3130924765     2105.305 
3171.7162234013       1916.1 
3203.4333856353      2668.87 
3235.4677194916      4103.11 
3267.8223966866      6970.25 
3300.5006206534      7294.79 
3333.50562686      7769.24 
3366.8406831286      5947.91 
3400.5090899598     9051.515 
3434.5141808594      9018.75 
3468.859322668    11118.325 
3503.5479158947     17841.25 
3538.5833950537     19038.65 
3573.9692290042      9937.04 
3609.7089212942     23789.98 
3645.8060105072 40306.133333333 
3682.2640706123      32974.4 
3719.0867113184      14275.8 
3756.2775784316     41912.35 
3793.8403542159      28009.3 
3831.778757758     27901.35 
3870.0965453356      31538.5 
3908.797510789     28119.25 
3947.8854858969     22029.05 
3987.3643407558      85311.6 
4027.2379841634     83343.95 
4067.510364005      98176.9 
4108.1854676451     74851.25 
4149.2673223215 77740.966666667 
4190.7599955447      54176.4 
4232.6675955002     80873.35 
4274.9942714552     88686.85 
4317.7442141697     135320.5 
4360.9216563114     134673.5 
4404.5308728746     132255.5 
4448.5761816033 152033.66666667 
4493.0619434193     168579.5 
4537.9925628535     182105.5 
4583.3724884821     173792.5 
4629.2062133669       169173 
4675.4982755006       176385 
4722.2532582556       178581 
4769.4757908381 127013.33333333 
4817.1705487465       163148 
4865.342254234 206463.66666667 
4913.9956767763       222819 
4963.1356335441 125541.66666667 
5012.7669898795     139518.5 
5062.8946597783 157964.66666667 
5113.5236063761     165301.5 
5164.6588424398 136409.33333333 
5216.3054308642       238337 
5268.4684851729 276724.66666667 
5321.1531700246 296128.66666667 
5374.3647017249     305806.5 
5428.1083487421       263912 
5482.3894322295 254899.66666667 
5537.2133265518 301118.66666667 
5592.5854598173       225500 
5648.5113144155       268699 
5704.9964275597 324506.66666667 
5762.0463918353       336563 
5819.6668557536 325283.66666667 
5877.8635243112 217855.33333333 
5936.6421595543 265003.66666667 
5996.0085811498 330319.33333333 
6055.9686669613       389857 
6116.5283536309 344069.33333333 
6177.6936371672 226628.33333333 
6239.4705735389 255049.66666667 
6301.8652792743       339275 
6364.883932067 366630.33333333 
6428.5327713877       368982 
6492.8180991016       406148 
6557.7462800926       406006 
6623.3237428935       358192 
6689.5569803225    260441.25 
6756.4525501257 275300.66666667 
6824.0170756269     336404.5 
6892.2572463832 422582.33333333 
6961.179818847    504112.25 
7030.7916170355 377396.66666667 
7101.0995332059       256956 
7172.1105285379 321306.33333333 
7243.8316338233    451380.25 
7316.2699501615 549516.66666667 
7389.4326496631     602329.5 
7463.3269761598    628950.25 
7537.9602459214     611924.5 
7613.3398483806 523502.66666667 
7689.4732468644    478744.75 
7766.367979333    499493.75 
7844.0316591264    539334.25 
7922.4719757176    576527.75 
8001.6966954748    608838.75 
8081.7136624296    631984.25 
8162.5307990539     615059.5 
8244.1561070444       600691 
8326.5976681148    579425.25 
8409.863644796     562678.2 
8493.9622812439    549799.25 
8578.9019040564    604821.75 
8664.6909230969     608553.6 
8751.3378323279    633326.75 
8838.8512106512    571348.25 
8927.2397227577     568642.6 
9016.5121199853     602670.5 
9106.6772411851     621159.6 
9197.744013597       615256 
9289.721453733     611401.6 
9382.6186682703     612869.8 
9476.444854953     616508.8 
9571.2093035025       613401 
9666.9213965375     599043.4 
9763.5906105029     595737.2 
9861.226516608     601296.6 
9959.838781774 601619.53333333 
10059.437169592       598594 
10160.031541288       598990 
10261.631856701       599447 
10364.248175268       597284 
10467.89065702     596129.5 
10572.56956359 589350.33333333 
10678.295259226     583808.5 
10785.078211819       577652 
10892.928993937     570494.5 
11001.858283876     560411.5 
11111.876866715       557055 
11222.995635382 554347.33333333 
11335.225591736       545817 
11448.577847653       551930 
11563.06362613       543460 
11678.694262391     542417.5 
11795.481205015       535023 
11913.436017065 533276.66666667 
12032.570377236       534160 
12152.896081008       534103 
12274.425041818       529776 
12397.169292236       525797 
12521.140985159       521682 
12646.35239501       518623 
12772.81591896 513309.66666667 
12900.54407815       511398 
13029.549518932       507472 
13159.845014121       502870 
13291.443464262       473677 
13424.357898905 461406.66666667 
13558.601477894 459031.33333333 
13694.187492673       466424 
13831.129367599     435328.5 
13969.440661275 434706.33333333 
14109.135067888 427694.66666667 
14250.226418567       426159 
14392.728682753 430165.33333333 
14536.65596958     413723.8 
14682.022529276 419707.66666667 
14828.842754569       431777 
14977.131182115       430123 
15126.902493936 443354.66666667 
15278.171518875 439942.33333333 
15430.953234064 450004.66666667 
15585.262766404       462057 
15741.115394068 459036.33333333 
15898.526548009 474744.28571429 
16057.511813489       485403 
16218.086931624     479591.5 
16380.26780094       476394 
16544.07047895     481742.5 
16709.511183739     466505.5 
16876.606295577       459429 
17045.372358532       432422 
17215.826082118     406031.5 
17387.984342939       380519 
17561.864186368       358588 
17737.482828232     336365.5 
17914.857656514       315608 
18094.006233079       298280 
18274.94629541     283767.5 
18457.695758364       262615 
18642.272715948       258175 
18828.695443107       259514 
19016.982397539     256070.5 
19207.152221514     248607.5 
19399.223743729     243205.5 
19593.215981166       233831 
19789.148140978     220267.5 
19987.039622388     213421.5 
20186.910018612       205701 
20388.779118798     201850.5 
20592.666909986       195950 
20798.593579086       191462 
21006.579514877       190312 
21216.645310025     188234.5 
21428.811763126       187087 
21643.099880757 185037.66666667 
21859.530879564     181278.5 
22078.12618836       179976 
22298.907450244       177236 
22521.896524746       173341 
22747.115489993       161348 
22974.586644893       151632 
23204.332511342       134209 
23436.375836456       127268 
23670.73959482     118092.5 
23907.446990769     113515.5 
24146.521460676 102563.66666667 
24387.986675283      93244.3 
24631.866542036      87569.3 
24878.185207456      83193.3 
25126.967059531      75724.2 
25378.236730126     74606.35 
25632.019097427 72020.433333333 
25888.339288402      71871.5 
26147.222681286 72816.766666667 
26408.694908098      70655.5 
26672.781857179     69860.05 
26939.509675751 66305.033333333 
27208.904772509 62176.366666667 
27480.993820234 58919.133333333 
27755.803758436     56210.75 
28033.361796021 52650.833333333 
28313.695413981 51904.666666667 
28596.832368121 50538.133333333 
28882.800691802 49139.166666667 
29171.62869872 45716.266666667 
29463.344985707 45048.733333333 
29757.978435564      42894.7 
30055.55821992        42595 
30356.113802119      41167.7 
30659.67494014 39523.933333333 
30966.271689541      39023.3 
31275.934406437 37657.033333333 
31588.693750501 37456.566666667 
31904.580688006     36634.72 
32223.626494886     36001.05 
32545.862759835      35446.9 
32871.321387434     34992.05 
33200.034601308      34203.3 
33532.034947321      34004.6 
33867.355296794      33246.1 
34206.028849762     32736.75 
34548.08913826      32623.4 
34893.570029642      31655.1 
35242.505729939     30934.25 
35594.930787238      30051.6 
35950.880095111     29484.75 
36310.388896062      28772.6 
36673.492785022     28295.35 
37040.227712872     27411.85 
37410.629990001     26723.75 
37784.736289901      26113.8 
38162.5836528     25123.55 
38544.209489328     24418.25 
38929.651584221     23504.65 
39318.948100064     22749.45 
39712.137581064     21233.55 
40109.258956875      20106.3 
40510.351546444     18850.95 
40915.455061908     18115.85 
41324.609612527     17339.25 
41737.855708653      16751.5 
42155.234265739     16131.75 
42576.786608396      15341.1 
43002.55447448     14313.45 
43432.580019225      13376.8 
43866.905819417      12447.5 
44305.574877612     11647.05 
44748.630626388      11225.9 
45196.116932652      10740.6 
45648.078101978 10311.733333333 
46104.558882998      9974.02 
46565.604471828      9723.03 
47031.260516546 9439.8233333333 
47501.573121712     9084.325 
47976.588852929     8845.405 
48456.354741458 8483.5066666667 
48940.918288873      8261.23 
49430.327471761      7944.39 
49924.630746479     7593.955 
50423.877053944 7359.1933333333 
50928.115824483      7099.55 
51437.396982728 6863.4866666667 
51951.770952555      6671.64 
52471.288662081 6439.8033333333 
52996.001548702 6186.1566666667 
53525.961564189      6021.72 
54061.221179831 5781.5366666667 
54601.833391629 5614.3033333333 
55147.851725545     5424.115 
55699.330242801 5307.8866666667 
56256.323545229 5109.0433333333 
56818.886780681 4907.6233333333 
57387.075648488 4803.8733333333 
57960.946404973 4633.0633333333 
58540.555869022 4490.1633333333 
59125.961427713 4361.9333333333 
59717.22104199      4229.52 
60314.39325241 4094.8666666667 
60917.537184934 3983.7933333333 
61526.712556783      3874.57 
62141.979682351      3742.79 
62763.399479174      3623.96 
63391.033473966 3472.9166666667 
64024.943808706 3230.6671428571 
64665.193246793       3056.2 
65311.845179261      2877.05 
65964.963631053      2698.82 
66624.613267364      2600.61 
67290.859400038     2516.185 
67963.767994038      2419.94 
68643.405673978      2330.41 
69329.839730718     2278.685 
70023.138128025     2182.235 
70723.369509305      2089.59 
71430.603204399      2054.93 
72144.909236443      1974.07 
72866.358328807      1904.08 
73595.021912095     1833.845 
74330.972131216      1772.17 
75074.281852528     1684.605 
75825.024671053      1598.75 
76583.274917764     1556.905 
77349.107666942     1479.655 
78122.598743611     1414.985 
78903.824731047     1354.495 
79692.862978358      1302.71 
80489.791608141      1250.38 
81294.689524223      1215.12 
82107.636419465     1172.555 
82928.712783659      1126.84 
83757.999911496     1091.165 
84595.579910611 1048.3466666667 
85441.535709717    1006.0585 
86295.951066814      977.626 
87158.910577482      939.133 
88030.499683257      913.814 
88910.80468009     885.7845 
89799.912726891       855.38 
90697.91185416      825.901 
91604.890972701     798.6725 
92520.939882428      769.878 
93446.149281253      738.942 
94380.610774065      719.102 
95324.416881806 695.25066666667 
96277.661050624      666.611 
97240.43766113      645.386 
98212.842037741      617.538 
99194.970458119      602.929 
100186.9201627      588.807 
199060.83304441       41.804 
399467.9878358      2.74966 
594753.39981818     0.549451 
793700.71765891     0.174332 
997811.18987739    0.0713866 
1193529.3359837    0.0343766 
1399507.0114645    0.0185192 
