#  WAVELENGTH	        FLUX	
#  (ANGSTROM)	(ERG/CM2/S/A)	
############	############	
429.23803031605  8.27685E-25 
437.8657147254  5.21042E-24 
446.66681559138  2.55431E-23 
455.64481858477  1.00364E-22 
469.4513122327  4.30298E-22 
478.88728360858  1.72913E-21 
488.51291800911  6.54531E-21 
498.3320276611  2.33904E-20 
503.31534793771  6.50151E-20 
508.34850141708  1.50092E-19 
518.56630629557  3.80185E-19 
528.98948905211  1.17256E-18 
539.62217778206  3.40465E-18 
545.01839955988  9.60133E-18 
555.97326939103  2.58678E-17 
567.14833210579  6.71226E-17 
578.54801358112  1.66248E-16 
584.33349371693  4.06956E-16 
596.07859694064   9.5429E-16 
608.05977673914  2.17149E-15 
614.14037450653   4.7992E-15 
626.48459603412  1.03214E-14 
639.0769364144  2.16353E-14 
645.46770577855  4.42446E-14 
651.92238283633  7.70829E-14 
658.44160666469  1.23747E-13 
671.67628295866  2.38999E-13 
678.39304578824  4.51973E-13 
692.02874600859  8.37578E-13 
698.94903346867  1.52049E-12 
712.99790904139  2.87558E-12 
720.12788813181  5.03295E-12 
734.60245868325  8.21141E-12 
741.94848327009  1.39309E-11 
749.36796810279   2.3271E-11 
764.43026426165  3.83075E-11 
772.07456690427  6.21473E-11 
779.79531257331  9.94792E-11 
787.59326569905  1.56438E-10 
803.4238903396  2.44656E-10 
811.45812924299  3.77283E-10 
819.57271053542  5.74483E-10 
827.76843764078  8.65012E-10 
844.40658323736   1.28828E-9 
852.85064906973   1.89869E-9 
861.37915556043      2.77E-9 
869.99294711603   3.99815E-9 
878.69287658719   5.72727E-9 
887.47980535306   8.12321E-9 
896.3546034066   1.14143E-8 
914.37133093507   5.02128E-5 
923.51504424442  0.000170136 
932.75019468686  0.000238835 
942.07769663373  0.000346815 
951.49847360007  0.000501799 
961.01345833607   0.00069834 
970.62359291943  0.000942991 
980.32982884862   0.00128746 
990.13312713711   0.00173075 
1000.0344584085   0.00241064 
1010.0348029926   0.00322472 
1020.1351510225   0.00421472 
1030.3365025327    0.0056909 
1040.639867558   0.00751304 
1051.0462662336   0.00984656 
1061.556728896    0.0127302 
1072.1722961849    0.0165701 
1082.8940191468    0.0214074 
1093.7229593382    0.0272531 
1104.6601889316    0.1792859 
1115.7067908209      0.42554 
1126.8638587291     0.611466 
1138.1324973164     0.789279 
1149.5138222896     0.858809 
1161.0089605125      1.14141 
1172.6190501176      1.24988 
1184.3452406188     1.052512 
1196.188693025     0.480531 
1208.1505799552      0.28868 
1220.2320857548     0.634451 
1232.4344066123      1.49516 
1244.7587506785     5.529915 
1257.2063381852      9.50828 
1269.7784015671      16.5012 
1282.4761855828      32.2975 
1295.3009474386      35.2304 
1308.253956913      59.9663 
1321.3364964821       77.905 
1334.5498614469    109.86425 
1347.8953600614      138.085 
1361.374313662       164.91 
1374.9880567986      202.645 
1388.7379373666      262.024 
1402.6253167403     318.4845 
1416.6515699077       381.42 
1430.8180856068 438.51588235294 
1445.1262664628 559.83307692308 
1459.5775291275      620.241 
1474.1733044187      756.057 
1488.9150374629       947.95 
1503.8041878376 1111.4809090909 
1518.8422297159      1367.95 
1534.0306520131       2803.5 
1549.3709585332      3557.25 
1564.8646681186      4061.02 
1580.5133147997       6204.7 
1596.3184479477      6904.94 
1612.2816324272     7029.625 
1628.4044487515      8694.07 
1644.688493239     8597.985 
1661.1353781714 10642.933181818 
1677.7467319531      24775.4 
1694.5241992726     52314.55 
1711.4694412654     147103.5 
1728.584135678       209615 
1745.8699770348       284099 
1763.3286768051     262094.5 
1780.9619635732       367877 
1798.7715832089     348159.5 
1816.759299041       321168 
1834.9268920314       346001 
1853.2761609517     491445.5 
1871.8089225613     534318.5 
1890.5270117869       632346 
1909.4322819047       584994 
1928.5266047238     524860.5 
1947.811870771 920388.54545455 
1967.2899894787 944651.88235294 
1986.9628893735 939668.66666667 
2006.8325182673     809012.5 
2026.9008434499      1101700 
2047.1698518844     972629.5 
2067.6415504033      1463721 
2088.3179659073      1509040 
2109.2011455664      1562215 
2130.293157022      1386375 
2151.5960885923      1543505 
2173.1120494782      1584100 
2194.843169973 1688756.6666667 
2216.7916016727      1655995 
2238.9595176894      1536970 
2261.3491128663      1502430 
2283.962603995      1789800 
2306.8022300349      1644190 
2329.8702523353     730684.5 
2353.1689548586 917173.33333333 
2376.7006444072       504578 
2400.4676508513       748928 
2424.4723273598      1907420 
2448.7170506334      2033855 
2473.2042211397 1722623.3333333 
2497.9362633511 2031449.1304348 
2522.9156259846 1449491.8518519 
2548.1447822445      1783265 
2573.6262300669 1591766.6666667 
2599.3624923676 1153124.3333333 
2625.3561172913      2843465 
2651.6096784642      3293900 
2678.1257752488      3094775 
2704.9070330013      2817730 
2731.9561033313      1980630 
2759.2756643647 2301363.3333333 
2786.8684210083     663064.5 
2814.7371052184      3254870 
2842.8844762706      3401780 
2871.3133210333 3810743.3333333 
2900.0264542436      4669480 
2929.026718786      4340680 
2958.3169859739      4777400 
2987.9001558336      4965460 
3017.779157392      5092750 
3047.9569489659      5212940 
3078.4365184556      5568820 
3109.2208836401      5353395 
3140.3130924765      5646995 
3171.7162234013      5162580 
3203.4333856353      5331775 
3235.4677194916      5675310 
3267.8223966866      6030370 
3300.5006206534      6207775 
3333.50562686      6057580 
3366.8406831286      6013385 
3400.5090899598      6393135 
3434.5141808594      6494850 
3468.859322668      6383930 
3503.5479158947      6643910 
3538.5833950537      6822335 
3573.9692290042      6591870 
3609.7089212942      6776066 
3645.8060105072 7129833.3333333 
3682.2640706123      8583195 
3719.0867113184     13012850 
3756.2775784316     16670850 
3793.8403542159     18194650 
3831.778757758     21136600 
3870.0965453356     16406300 
3908.797510789     16193700 
3947.8854858969     15184150 
3987.3643407558     21713300 
4027.2379841634     21975150 
4067.510364005     21284400 
4108.1854676451     19774000 
4149.2673223215 21961866.666667 
4190.7599955447     21399900 
4232.6675955002     21341350 
4274.9942714552     20301050 
4317.7442141697     18184850 
4360.9216563114     20968850 
4404.5308728746     20295750 
4448.5761816033     20431500 
4493.0619434193     20594100 
4537.9925628535     20306000 
4583.3724884821     20165000 
4629.2062133669     20115100 
4675.4982755006     19432100 
4722.2532582556     19873600 
4769.4757908381 19478833.333333 
4817.1705487465     18190900 
4865.342254234 17145566.666667 
4913.9956767763     18263150 
4963.1356335441 17783766.666667 
5012.7669898795     17652150 
5062.8946597783     17598300 
5113.5236063761     16880850 
5164.6588424398     16400800 
5216.3054308642     16507250 
5268.4684851729 16046733.333333 
5321.1531700246     15946100 
5374.3647017249     15680750 
5428.1083487421 15626333.333333 
5482.3894322295 15388766.666667 
5537.2133265518 15157566.666667 
5592.5854598173     14981100 
5648.5113144155 14677333.333333 
5704.9964275597 14554966.666667 
5762.0463918353 14310633.333333 
5819.6668557536 14048766.666667 
5877.8635243112 13692466.666667 
5936.6421595543 13516433.333333 
5996.0085811498 13213666.666667 
6055.9686669613     12981100 
6116.5283536309 12502733.333333 
6177.6936371672 12467266.666667 
6239.4705735389 12144733.333333 
6301.8652792743 11941933.333333 
6364.883932067 11726133.333333 
6428.5327713877     11423150 
6492.8180991016 11024766.666667 
6557.7462800926 10200556.666667 
6623.3237428935 10882133.333333 
6689.5569803225     10657950 
6756.4525501257 10443933.333333 
6824.0170756269     10211700 
6892.2572463832     10007640 
6961.179818847      9771780 
7030.7916170355      9587590 
7101.0995332059      9320540 
7172.1105285379 9117116.6666667 
7243.8316338233    8949622.5 
7316.2699501615      8784440 
7389.4326496631      8549795 
7463.3269761598      8368415 
7537.9602459214    8219717.5 
7613.3398483806 8029353.3333333 
7689.4732468644    7861857.5 
7766.367979333    7675842.5 
7844.0316591264      7501960 
7922.4719757176    7330862.5 
8001.6966954748      7180120 
8081.7136624296      7032135 
8162.5307990539      6829625 
8244.1561070444      6709010 
8326.5976681148      6508495 
8409.863644796      6377382 
8493.9622812439      6072580 
8578.9019040564      6345700 
8664.6909230969      6042874 
8751.3378323279    6305722.5 
8838.8512106512      5964160 
8927.2397227577      5936708 
9016.5121199853    5800712.5 
9106.6772411851      5798606 
9197.744013597      5363060 
9289.721453733      5545914 
9382.6186682703      5353400 
9476.444854953      5076458 
9571.2093035025      5095675 
9666.9213965375      4983834 
9763.5906105029      4880196 
9861.226516608      4739478 
9959.838781774 4592394.6666667 
10059.437169592      4404375 
10160.031541288      4406675 
10261.631856701      4297660 
10364.248175268      4196345 
10467.89065702      4063925 
10572.56956359      3932920 
10678.295259226      3816670 
10785.078211819      3720095 
10892.928993937      3499685 
11001.858283876      3578140 
11111.876866715      3484890 
11222.995635382      3364130 
11335.225591736      3266075 
11448.577847653      3217865 
11563.06362613      3092230 
11678.694262391      3009520 
11795.481205015      2927605 
11913.436017065 2868653.3333333 
12032.570377236      2786350 
12152.896081008      2736570 
12274.425041818 2656556.6666667 
12397.169292236      2589240 
12521.140985159      2506890 
12646.35239501      2449755 
12772.81591896 2310963.3333333 
12900.54407815 2305373.3333333 
13029.549518932      2244715 
13159.845014121 2182696.6666667 
13291.443464262      2128445 
13424.357898905 2072256.6666667 
13558.601477894 2004756.6666667 
13694.187492673 1934133.3333333 
13831.129367599      1893595 
13969.440661275 1845416.6666667 
14109.135067888      1787020 
14250.226418567 1733286.6666667 
14392.728682753 1665363.3333333 
14536.65596958      1628122 
14682.022529276 1575436.6666667 
14828.842754569 1531113.3333333 
14977.131182115 1479003.3333333 
15126.902493936      1440530 
15278.171518875      1389710 
15430.953234064 1358466.6666667 
15585.262766404      1323870 
15741.115394068 1282273.3333333 
15898.526548009 1280111.4285714 
16057.511813489      1194560 
16218.086931624      1212195 
16380.26780094      1121490 
16544.07047895      1145730 
16709.511183739      1062845 
16876.606295577      1065050 
17045.372358532      1029165 
17215.826082118       955494 
17387.984342939       941540 
17561.864186368       915104 
17737.482828232     890236.5 
17914.857656514       856753 
18094.006233079       798409 
18274.94629541     791275.5 
18457.695758364       767391 
18642.272715948       723633 
18828.695443107     713071.5 
19016.982397539     692625.5 
19207.152221514     665588.5 
19399.223743729     623865.5 
19593.215981166       617739 
19789.148140978       596365 
19987.039622388       575957 
20186.910018612       554418 
20388.779118798       536138 
20592.666909986     516501.5 
20798.593579086     498890.5 
21006.579514877     481309.5 
21216.645310025       464656 
21428.811763126       450092 
21643.099880757       423432 
21859.530879564       413459 
22078.12618836       399779 
22298.907450244       387437 
22521.896524746     373760.5 
22747.115489993       359757 
22974.586644893     346072.5 
23204.332511342       335351 
23436.375836456 322496.66666667 
23670.73959482       309894 
23907.446990769       300268 
24146.521460676       288831 
24387.986675283     277943.5 
24631.866542036 268024.66666667 
24878.185207456       257214 
25126.967059531       248652 
25378.236730126       241949 
25632.019097427 230649.66666667 
25888.339288402       225371 
26147.222681286       211275 
26408.694908098 208642.33333333 
26672.781857179     197454.5 
26939.509675751       195236 
27208.904772509 187361.33333333 
27480.993820234 176917.33333333 
27755.803758436       173922 
28033.361796021 168200.33333333 
28313.695413981       161592 
28596.832368121       152906 
28882.800691802 149346.66666667 
29171.62869872 143708.33333333 
29463.344985707       138359 
29757.978435564       133178 
30055.55821992 126863.66666667 
30356.113802119 123038.66666667 
30659.67494014 119003.66666667 
30966.271689541 114595.33333333 
31275.934406437 110611.66666667 
31588.693750501 106794.33333333 
31904.580688006     103199.2 
32223.626494886     98948.95 
32545.862759835      95520.5 
32871.321387434      90918.8 
33200.034601308        87923 
33532.034947321        84897 
33867.355296794      82116.3 
34206.028849762      78692.4 
34548.08913826      76157.2 
34893.570029642     73733.95 
35242.505729939     70588.85 
35594.930787238     67645.45 
35950.880095111     64859.05 
36310.388896062      62640.7 
36673.492785022     60774.05 
37040.227712872        58299 
37410.629990001     55545.55 
37784.736289901      53837.8 
38162.5836528      51889.7 
38544.209489328     49933.75 
38929.651584221     47698.15 
39318.948100064      46242.7 
39712.137581064      44315.2 
40109.258956875     42151.85 
40510.351546444     41216.65 
40915.455061908     39745.55 
41324.609612527        37935 
41737.855708653      36864.1 
42155.234265739     35594.35 
42576.786608396      34337.6 
43002.55447448      33123.5 
43432.580019225     31696.15 
43866.905819417 30571.533333333 
44305.574877612      29302.7 
44748.630626388     28301.25 
45196.116932652      27355.1 
45648.078101978 26228.466666667 
46104.558882998      24915.8 
46565.604471828     24103.65 
47031.260516546      23380.7 
47501.573121712     22446.15 
47976.588852929     21740.25 
48456.354741458      20885.4 
48940.918288873     20071.75 
49430.327471761 19308.533333333 
49924.630746479      18562.5 
50423.877053944 17870.466666667 
50928.115824483     17064.55 
51437.396982728 16563.066666667 
51951.770952555      15978.2 
52471.288662081 15371.566666667 
52996.001548702 14741.833333333 
53525.961564189      14159.4 
54061.221179831 13714.466666667 
54601.833391629 13137.566666667 
55147.851725545      12627.7 
55699.330242801      12248.9 
56256.323545229 11755.566666667 
56818.886780681 11238.233333333 
57387.075648488      10833.6 
57960.946404973      10410.4 
58540.555869022 9949.8866666667 
59125.961427713 9566.1066666667 
59717.22104199 9252.5766666667 
60314.39325241      8901.58 
60917.537184934      8565.75 
61526.712556783      8248.65 
62141.979682351      7941.92 
62763.399479174 7611.9533333333 
63391.033473966 7376.1733333333 
64024.943808706 7056.7585714286 
64665.193246793      6815.66 
65311.845179261     6577.685 
65964.963631053     6272.965 
66624.613267364      6056.98 
67290.859400038     5826.155 
67963.767994038       5585.3 
68643.405673978       5398.6 
69329.839730718     5216.465 
70023.138128025     4991.365 
70723.369509305      4772.98 
71430.603204399      4621.69 
72144.909236443     4468.255 
72866.358328807     4286.025 
73595.021912095      4107.43 
74330.972131216     3887.845 
75074.281852528      3777.49 
75825.024671053      3662.56 
76583.274917764      3552.11 
77349.107666942     3404.125 
78122.598743611     3276.865 
78903.824731047      3149.05 
79692.862978358     3027.215 
80489.791608141     2911.505 
81294.689524223      2793.36 
82107.636419465      2696.13 
82928.712783659     2595.435 
83757.999911496     2499.615 
84595.579910611 2386.9633333333 
85441.535709717     2279.545 
86295.951066814      2191.56 
87158.910577482      2112.98 
88030.499683257     2045.665 
88910.80468009     1974.925 
89799.912726891      1890.14 
90697.91185416     1810.055 
91604.890972701     1749.175 
92520.939882428 1676.0166666667 
93446.149281253      1601.96 
94380.610774065      1554.31 
95324.416881806 1491.3033333333 
96277.661050624     1432.105 
97240.43766113 1375.2633333333 
98212.842037741      1320.13 
99194.970458119     1279.965 
100186.9201627         1250 
199060.83304441       80.979 
399467.9878358      5.08445 
594753.39981818     0.999634 
793700.71765891     0.314518 
997811.18987739     0.128141 
1193529.3359837    0.0614985 
1399507.0114645    0.0330503 
