#  WAVELENGTH	        FLUX	
#  (ANGSTROM)	(ERG/CM2/S/A)	
############	############	
        90.9  3.75298E-16 
    92.72709  2.00883E-15 
95.53681355409  9.85637E-15 
97.457103506527  2.52056E-14 
99.415991287008  7.40421E-14 
101.41425271188   2.7351E-13 
103.45267919139  7.02764E-13 
105.53207804313   1.7514E-12 
107.6532728118  4.90038E-12 
109.81710359532  1.74172E-11 
113.14467165136  8.64601E-11 
117.73879903054  4.25085E-10 
120.10534889105   1.69404E-9 
123.7446610678   6.26833E-9 
126.23192875526   1.42643E-8 
127.49424804281   2.24216E-8 
130.05688242847   4.57025E-8 
131.35745125276   8.54651E-8 
132.67102576529   1.38392E-7 
135.33771338317   3.21602E-7 
139.43858143639   8.39257E-7 
142.24129692326   2.28571E-6 
146.55135046134   6.61405E-6 
150.99200293167   1.77089E-5 
154.02694219059    4.9827E-5 
158.69411256591  0.000116015 
161.88386422848   0.00023865 
165.13772989948   0.00056623 
170.14156825316    0.0013712 
171.84298393569   0.00252932 
175.2970279128   0.00483256 
178.82049817385   0.00901347 
180.60870315558    0.0117863 
186.0813274699    0.0252635 
189.82156215205    0.0567402 
193.6369755513     0.089876 
197.52907875988      0.17883 
201.49941324296     0.294736 
203.51440737539     0.464771 
209.68109743327      0.98582 
216.03464436659      2.06344 
218.19499081026       3.2308 
222.58071012555      4.75291 
224.8065172268      7.41549 
229.32512822306       3135.2 
233.93456330034      8960.05 
238.63664802268      14752.7 
245.86757709442      24990.6 
250.80951539401      39928.8 
255.85078665343      49990.1 
258.40929451997      79347.6 
263.60332133982       111090 
266.23935455322       157397 
271.59076557974       214826 
277.04973996789       276949 
282.61843974125       491606 
288.29907038004       688015 
294.09388169468       908329 
300.00516871675      1151550 
306.03527260795      1881820 
315.30844740325      3776460 
324.86260866801      5423850 
334.70627057326      8632100 
344.8482052779     12666600 
355.29745074603     20502600 
362.43892950602     31087600 
373.42119150899     38435200 
384.7362270329     52354600 
392.46942519626     71511900 
404.36164124913     88616900 
412.48931023824    110569000 
420.78034537403    126054000 
429.23803031605    147856000 
437.8657147254    183339000 
446.66681559138    217776000 
455.64481858477    246032000 
469.4513122327    292397000 
478.88728360858    341461000 
488.51291800911    389988000 
498.3320276611    458329000 
503.31534793771   1245900000 
508.34850141708   6387260000 
518.56630629557   6078260000 
528.98948905211   5919040000 
539.62217778206   5342450000 
545.01839955988   6254840000 
555.97326939103   7014690000 
567.14833210579   7286250000 
578.54801358112   6727850000 
584.33349371693   7224640000 
596.07859694064   6800820000 
608.05977673914   7337780000 
614.14037450653   8028740000 
626.48459603412   7971990000 
639.0769364144   7810520000 
645.46770577855   8121500000 
651.92238283633   7785220000 
658.44160666469   8160590000 
671.67628295866   8304820000 
678.39304578824   7613860000 
692.02874600859   8753250000 
698.94903346867   8214130000 
712.99790904139   9113000000 
720.12788813181   8999470000 
734.60245868325   9097020000 
741.94848327009   9214210000 
749.36796810279   9208990000 
764.43026426165   9327080000 
772.07456690427   9453000000 
779.79531257331   9741910000 
787.59326569905   9713550000 
803.4238903396   9621960000 
811.45812924299   9641360000 
819.57271053542   9916060000 
827.76843764078   9085090000 
844.40658323736   9798870000 
852.85064906973   9804950000 
861.37915556043  10004500000 
869.99294711603  10100400000 
878.69287658719  10230800000 
887.47980535306  10322800000 
896.3546034066  10166800000 
914.37133093507  10271100000 
923.51504424442  28145200000 
932.75019468686  48721100000 
942.07769663373  83144100000 
951.49847360007  96579900000 
961.01345833607 121342000000 
970.62359291943  52739200000 
980.32982884862 113746000000 
990.13312713711 101947000000 
1000.0344584085 107638000000 
1010.0348029926 105918000000 
1020.1351510225  61298900000 
1030.3365025327  98748600000 
1040.639867558 112951000000 
1051.0462662336 108796000000 
1061.556728896  96070300000 
1072.1722961849  98904200000 
1082.8940191468  89172400000 
1093.7229593382  96430300000 
1104.6601889316  90950900000 
1115.7067908209  78639800000 
1126.8638587291  86033200000 
1138.1324973164  80568600000 
1149.5138222896  79317900000 
1161.0089605125  76924000000 
1172.6190501176  57791000000 
1184.3452406188  69627700000 
1196.188693025  63311400000 
1208.1505799552  39053100000 
1220.2320857548  61052700000 
1232.4344066123  65366100000 
1244.7587506785  63018000000 
1257.2063381852  62916800000 
1269.7784015671  62538800000 
1282.4761855828  59266700000 
1295.3009474386  57008500000 
1308.253956913  58271300000 
1321.3364964821  55787800000 
1334.5498614469  53838700000 
1347.8953600614  52725100000 
1361.374313662  50623000000 
1374.9880567986  48964200000 
1388.7379373666  41788400000 
1402.6253167403  43438450000 
1416.6515699077  41587200000 
1430.8180856068 42725252941.176 
1445.1262664628 41258215384.615 
1459.5775291275  39756100000 
1474.1733044187  38905900000 
1488.9150374629  37569700000 
1503.8041878376 35774127272.727 
1518.8422297159  34497700000 
1534.0306520131  30067400000 
1549.3709585332  28438300000 
1564.8646681186  29937950000 
1580.5133147997  29992900000 
1596.3184479477  28213600000 
1612.2816324272  27244700000 
1628.4044487515  27235600000 
1644.688493239  26691450000 
1661.1353781714 26262245454.545 
1677.7467319531  26249600000 
1694.5241992726  25183250000 
1711.4694412654  23696650000 
1728.584135678  23549150000 
1745.8699770348  22889800000 
1763.3286768051  22169900000 
1780.9619635732  21648700000 
1798.7715832089  20962700000 
1816.759299041  20349800000 
1834.9268920314  19586550000 
1853.2761609517  18867500000 
1871.8089225613  18147100000 
1890.5270117869  17311850000 
1909.4322819047  16522650000 
1928.5266047238  16635550000 
1947.811870771 15756081818.182 
1967.2899894787 15801411764.706 
1986.9628893735 15078366666.667 
2006.8325182673  15000050000 
2026.9008434499  14312000000 
2047.1698518844  12211450000 
2067.6415504033  12136500000 
2088.3179659073  12596350000 
2109.2011455664  12856550000 
2130.293157022  12457550000 
2151.5960885923  12088400000 
2173.1120494782  11768100000 
2194.843169973 11395733333.333 
2216.7916016727  11000950000 
2238.9595176894  10600100000 
2261.3491128663  10383750000 
2283.962603995 9791396666.6667 
2306.8022300349   9611990000 
2329.8702523353   9347230000 
2353.1689548586 9015666666.6667 
2376.7006444072   8591365000 
2400.4676508513   8445050000 
2424.4723273598 8151206666.6667 
2448.7170506334   7878605000 
2473.2042211397 7374393333.3333 
2497.9362633511   7186220000 
2522.9156259846 7081537037.037 
2548.1447822445   6852835000 
2573.6262300669   6642460000 
2599.3624923676 6404976666.6667 
2625.3561172913   6195480000 
2651.6096784642 5970356666.6667 
2678.1257752488   5776060000 
2704.9070330013   5590040000 
2731.9561033313 5379986666.6667 
2759.2756643647 5196173333.3333 
2786.8684210083   5002500000 
2814.7371052184   4867440000 
2842.8844762706 4717496666.6667 
2871.3133210333   4547210000 
2900.0264542436   4403620000 
2929.026718786   4242800000 
2958.3169859739   4106020000 
2987.9001558336   3952105000 
3017.779157392   3816780000 
3047.9569489659   3698930000 
3078.4365184556   3553320000 
3109.2208836401   3453625000 
3140.3130924765   3299365000 
3171.7162234013   3172850000 
3203.4333856353   3083670000 
3235.4677194916   2993760000 
3267.8223966866   2894480000 
3300.5006206534   2774445000 
3333.50562686   2682750000 
3366.8406831286   2605175000 
3400.5090899598   2498155000 
3434.5141808594   2410570000 
3468.859322668   2342645000 
3503.5479158947   2253115000 
3538.5833950537   2171200000 
3573.9692290042   2095620000 
3609.7089212942   2033594000 
3645.8060105072   1935820000 
3682.2640706123   1860725000 
3719.0867113184   1770930000 
3756.2775784316   1712075000 
3793.8403542159   1676580000 
3831.778757758   1788770000 
3870.0965453356   1479480000 
3908.797510789   1750345000 
3947.8854858969   1530280000 
3987.3643407558   1625980000 
4027.2379841634   1559010000 
4067.510364005   1467010000 
4108.1854676451   1351355000 
4149.2673223215 1416906666.6667 
4190.7599955447   1363705000 
4232.6675955002   1307825000 
4274.9942714552   1256975000 
4317.7442141697   1083885000 
4360.9216563114   1160370000 
4404.5308728746   1142160000 
4448.5761816033 1083186666.6667 
4493.0619434193   1055805000 
4537.9925628535   1019735000 
4583.3724884821    986723500 
4629.2062133669    940274000 
4675.4982755006    900336500 
4722.2532582556    883987500 
4769.4757908381    850931000 
4817.1705487465    785080000 
4865.342254234    744182000 
4913.9956767763    747522000 
4963.1356335441 727141333.33333 
5012.7669898795    701507000 
5062.8946597783    677983000 
5113.5236063761    652787500 
5164.6588424398    629987000 
5216.3054308642    607631000 
5268.4684851729    586274000 
5321.1531700246 561951666.66667 
5374.3647017249    541461000 
5428.1083487421    523993000 
5482.3894322295    502764000 
5537.2133265518 482616666.66667 
5592.5854598173    466616500 
5648.5113144155    450304000 
5704.9964275597    431348000 
5762.0463918353 415018666.66667 
5819.6668557536 395308333.33333 
5877.8635243112 383680333.33333 
5936.6421595543 370391666.66667 
5996.0085811498    357156000 
6055.9686669613    344144000 
6116.5283536309 331447666.66667 
6177.6936371672 319572666.66667 
6239.4705735389 308086666.66667 
6301.8652792743 297118666.66667 
6364.883932067 286668333.33333 
6428.5327713877    274940250 
6492.8180991016    259703000 
6557.7462800926    242412000 
6623.3237428935 245415333.33333 
6689.5569803225    236006250 
6756.4525501257 227429666.66667 
6824.0170756269    218777000 
6892.2572463832 210443333.33333 
6961.179818847    202564250 
7030.7916170355 194091666.66667 
7101.0995332059    187793500 
7172.1105285379    180664000 
7243.8316338233    174030750 
7316.2699501615 168082666.66667 
7389.4326496631    162108250 
7463.3269761598    155531500 
7537.9602459214    149363000 
7613.3398483806 144211666.66667 
7689.4732468644    139251500 
7766.367979333    133855250 
7844.0316591264    128772750 
7922.4719757176    123888750 
8001.6966954748    119217500 
8081.7136624296    114615750 
8162.5307990539    110203250 
8244.1561070444    106078000 
8326.5976681148    102216750 
8409.863644796     98083820 
8493.9622812439     94171575 
8578.9019040564     90515425 
8664.6909230969     86526180 
8751.3378323279     84516125 
8838.8512106512     79622475 
8927.2397227577     77862920 
9016.5121199853     75102200 
9106.6772411851     74004780 
9197.744013597     67261300 
9289.721453733     68774780 
9382.6186682703     66084220 
9476.444854953     60165460 
9571.2093035025     60850450 
9666.9213965375     59030140 
9763.5906105029     56791380 
9861.226516608     54554600 
9959.838781774 51379166.666667 
10059.437169592     48947100 
10160.031541288     48791550 
10261.631856701     46890250 
10364.248175268     45247100 
10467.89065702     43591300 
10572.56956359 41608433.333333 
10678.295259226     39769850 
10785.078211819     38057500 
10892.928993937     34924650 
11001.858283876     35564050 
11111.876866715     34488700 
11222.995635382 33014833.333333 
11335.225591736     31625700 
11448.577847653     30568050 
11563.06362613 29296466.666667 
11678.694262391     28105050 
11795.481205015     27190000 
11913.436017065 25999866.666667 
12032.570377236     25058150 
12152.896081008     24264300 
12274.425041818 23317333.333333 
12397.169292236     22412050 
12521.140985159 21538866.666667 
12646.35239501     20711350 
12772.81591896     19184000 
12900.54407815 19009733.333333 
13029.549518932     18363650 
13159.845014121 17694066.666667 
13291.443464262     17051100 
13424.357898905 16436333.333333 
13558.601477894 15741366.666667 
13694.187492673 15080366.666667 
13831.129367599     14554100 
13969.440661275 14053033.333333 
14109.135067888 13478966.666667 
14250.226418567     12933300 
14392.728682753 12415133.333333 
14536.65596958     11920730 
14682.022529276 11452966.666667 
14828.842754569 11009933.333333 
14977.131182115 10580833.333333 
15126.902493936 10184133.333333 
15278.171518875 9798306.6666667 
15430.953234064 9428763.3333333 
15585.262766404 9073926.6666667 
15741.115394068      8734340 
15898.526548009 8387388.5714286 
16057.511813489      8027660 
16218.086931624      7784475 
16380.26780094      7424690 
16544.07047895      7285885 
16709.511183739      6824940 
16876.606295577      6704770 
17045.372358532      6471650 
17215.826082118      6074170 
17387.984342939      5900425 
17561.864186368      5729630 
17737.482828232      5541215 
17914.857656514      5295880 
18094.006233079      4939215 
18274.94629541      4860145 
18457.695758364      4705000 
18642.272715948      4430720 
18828.695443107      4366265 
19016.982397539      4185495 
19207.152221514      4013575 
19399.223743729      3753520 
19593.215981166      3711790 
19789.148140978      3566455 
19987.039622388      3428110 
20186.910018612      3296400 
20388.779118798      3168205 
20592.666909986      3051395 
20798.593579086      2937430 
21006.579514877      2823985 
21216.645310025      2725005 
21428.811763126      2618740 
21643.099880757 2456583.3333333 
21859.530879564      2397420 
22078.12618836      2312870 
22298.907450244      2232255 
22521.896524746      2154975 
22747.115489993 2063126.6666667 
22974.586644893      1975740 
23204.332511342      1909630 
23436.375836456 1830743.3333333 
23670.73959482      1755610 
23907.446990769      1698345 
24146.521460676 1630123.3333333 
24387.986675283      1565050 
24631.866542036 1502573.3333333 
24878.185207456      1444270 
25126.967059531 1388243.3333333 
25378.236730126      1335205 
25632.019097427 1283856.6666667 
25888.339288402      1234555 
26147.222681286      1162890 
26408.694908098      1136520 
26672.781857179      1090150 
26939.509675751 1058716.6666667 
27208.904772509 1012345.3333333 
27480.993820234 961757.33333333 
27755.803758436     936365.5 
28033.361796021       903786 
28313.695413981 865870.66666667 
28596.832368121 820074.66666667 
28882.800691802       797324 
29171.62869872       765552 
29463.344985707       735196 
29757.978435564       706344 
30055.55821992 672060.66666667 
30356.113802119 647868.66666667 
30659.67494014 627821.33333333 
30966.271689541 604124.66666667 
31275.934406437 581518.33333333 
31588.693750501       559966 
31904.580688006     540048.6 
32223.626494886     516596.5 
32545.862759835       497509 
32871.321387434     472060.5 
33200.034601308       457599 
33532.034947321       442215 
33867.355296794       426894 
34206.028849762       407472 
34548.08913826       393598 
34893.570029642       380350 
35242.505729939     363504.5 
35594.930787238       347593 
35950.880095111     332535.5 
36310.388896062       321743 
36673.492785022       311417 
37040.227712872     295415.5 
37410.629990001     282608.5 
37784.736289901       273926 
38162.5836528     262754.5 
38544.209489328     252147.5 
38929.651584221     241797.5 
39318.948100064     232478.5 
39712.137581064       223045 
40109.258956875       211118 
40510.351546444     206173.5 
40915.455061908     198437.5 
41324.609612527     190232.5 
41737.855708653     183690.5 
42155.234265739       176988 
42576.786608396       170414 
43002.55447448       164294 
43432.580019225     157506.5 
43866.905819417       151058 
44305.574877612     144702.5 
44748.630626388     139682.5 
45196.116932652       134833 
45648.078101978 129057.33333333 
46104.558882998       121344 
46565.604471828       117853 
47031.260516546 114443.33333333 
47501.573121712       109760 
47976.588852929     106167.5 
48456.354741458 101886.66666667 
48940.918288873     97805.45 
49430.327471761 93939.566666667 
49924.630746479      90250.4 
50423.877053944 86740.333333333 
50928.115824483     82266.65 
51437.396982728 80121.533333333 
51951.770952555     77205.85 
52471.288662081 74324.466666667 
52996.001548702 71036.733333333 
53525.961564189      68429.6 
54061.221179831 65949.533333333 
54601.833391629      63114.6 
55147.851725545     60864.35 
55699.330242801 58720.766666667 
56256.323545229 56266.566666667 
56818.886780681 53918.366666667 
57387.075648488        51730 
57960.946404973 49639.533333333 
58540.555869022      47099.6 
59125.961427713 45571.266666667 
59717.22104199      43965.6 
60314.39325241 42252.966666667 
60917.537184934 40622.666666667 
61526.712556783 39069.766666667 
62141.979682351      37566.2 
62763.399479174 36059.233333333 
63391.033473966      34835.3 
64024.943808706 33286.285714286 
64665.193246793      32127.9 
65311.845179261     30970.05 
65964.963631053      29502.7 
66624.613267364      28456.6 
67290.859400038      27325.2 
67963.767994038     26192.35 
68643.405673978        25295 
69329.839730718      24435.2 
70023.138128025     23341.75 
70723.369509305      22308.8 
71430.603204399      21569.5 
72144.909236443      20863.8 
72866.358328807      19965.5 
73595.021912095     19092.85 
74330.972131216     17841.25 
75074.281852528     17502.85 
75825.024671053        16997 
76583.274917764      16472.3 
77349.107666942      15802.2 
78122.598743611      15166.3 
78903.824731047      14561.7 
79692.862978358     13987.05 
80489.791608141      13440.2 
81294.689524223      12915.7 
82107.636419465      12424.7 
82928.712783659     11952.95 
83757.999911496      11503.1 
84595.579910611 10971.266666667 
85441.535709717     10467.45 
86295.951066814     10065.31 
87158.910577482      9622.14 
88030.499683257      9373.82 
88910.80468009     9041.395 
89799.912726891 8646.8133333333 
90697.91185416     8272.095 
91604.890972701      7987.31 
92520.939882428 7649.1066666667 
93446.149281253      7299.87 
94380.610774065     7082.495 
95324.416881806      6791.11 
96277.661050624      6513.59 
97240.43766113      6250.94 
98212.842037741     6000.525 
99194.970458119     5809.575 
100186.9201627      5670.81 
199060.83304441      352.451 
399467.9878358      21.5233 
594753.39981818      4.18369 
793700.71765891      1.30808 
997811.18987739     0.530777 
1193529.3359837     0.254023 
1399507.0114645     0.136236 
