#  WAVELENGTH	        FLUX	
#  (ANGSTROM)	(ERG/CM2/S/A)	
############	############	
498.3320276611  4.85001E-25 
503.31534793771  1.53776E-24 
508.34850141708   4.0189E-24 
518.56630629557  1.19891E-23 
528.98948905211  4.50372E-23 
539.62217778206  1.58263E-22 
545.01839955988  5.35891E-22 
555.97326939103  1.72304E-21 
567.14833210579  5.30288E-21 
578.54801358112  1.54914E-20 
584.33349371693  4.44532E-20 
596.07859694064   1.2159E-19 
608.05977673914  3.21057E-19 
614.14037450653  8.19525E-19 
626.48459603412  2.02622E-18 
639.0769364144  4.86227E-18 
645.46770577855   1.1334E-17 
651.92238283633  2.18652E-17 
658.44160666469  3.83021E-17 
671.67628295866  8.35195E-17 
678.39304578824  1.77709E-16 
692.02874600859  3.69224E-16 
698.94903346867  7.49283E-16 
712.99790904139  1.59545E-15 
720.12788813181   3.1009E-15 
734.60245868325   5.5461E-15 
741.94848327009  1.03946E-14 
749.36796810279  1.91298E-14 
764.43026426165  3.46086E-14 
772.07456690427  6.15477E-14 
779.79531257331  1.07745E-13 
787.59326569905  1.85056E-13 
803.4238903396  3.14953E-13 
811.45812924299  5.27641E-13 
819.57271053542  8.71275E-13 
827.76843764078  1.41993E-12 
844.40658323736  2.28452E-12 
852.85064906973  3.63088E-12 
861.37915556043  5.70211E-12 
869.99294711603  8.84765E-12 
878.69287658719  1.35935E-11 
887.47980535306  2.06541E-11 
896.3546034066  3.10561E-11 
914.37133093507   1.00038E-7 
923.51504424442   3.67848E-7 
932.75019468686   5.45427E-7 
942.07769663373   8.25071E-7 
951.49847360007   1.27953E-6 
961.01345833607    1.8925E-6 
970.62359291943   2.72752E-6 
980.32982884862   3.97921E-6 
990.13312713711   5.71093E-6 
1000.0344584085   8.36283E-6 
1010.0348029926   1.17653E-5 
1020.1351510225   1.57573E-5 
1030.3365025327   2.32996E-5 
1040.639867558   3.25191E-5 
1051.0462662336   4.43909E-5 
1061.556728896    6.0949E-5 
1072.1722961849   8.31846E-5 
1082.8940191468   0.00011293 
1093.7229593382  0.000150623 
1104.6601889316  0.000872977 
1115.7067908209   0.00193401 
1126.8638587291   0.00295483 
1138.1324973164   0.00386061 
1149.5138222896   0.00449979 
1161.0089605125   0.00595592 
1172.6190501176   0.00739777 
1184.3452406188  0.006630595 
1196.188693025    0.0041214 
1208.1505799552   0.00226333 
1220.2320857548   0.00583612 
1232.4344066123    0.0139263 
1244.7587506785    0.0290495 
1257.2063381852    0.0375805 
1269.7784015671    0.0475447 
1282.4761855828    0.0635023 
1295.3009474386    0.0754401 
1308.253956913    0.0959786 
1321.3364964821     0.103784 
1334.5498614469    0.1308115 
1347.8953600614     0.168671 
1361.374313662     0.184626 
1374.9880567986    0.2272745 
1388.7379373666     0.278827 
1402.6253167403     0.364236 
1416.6515699077     0.444182 
1430.8180856068 0.57804435294118 
1445.1262664628 0.67847169230769 
1459.5775291275     0.866388 
1474.1733044187    0.9892645 
1488.9150374629       1.3643 
1503.8041878376 1.6243872727273 
1518.8422297159      2.53127 
1534.0306520131      10.7923 
1549.3709585332      18.8753 
1564.8646681186     25.30035 
1580.5133147997     43.65425 
1596.3184479477      51.9621 
1612.2816324272     64.67905 
1628.4044487515      80.1468 
1644.688493239       94.138 
1661.1353781714 129.25002727273 
1677.7467319531      291.382 
1694.5241992726     495.7295 
1711.4694412654      591.915 
1728.584135678      968.827 
1745.8699770348      1579.68 
1763.3286768051       1561.9 
1780.9619635732     2504.335 
1798.7715832089      2681.86 
1816.759299041      3214.85 
1834.9268920314     3132.145 
1853.2761609517      4631.57 
1871.8089225613     5955.935 
1890.5270117869       7721.2 
1909.4322819047      8062.86 
1928.5266047238     8208.605 
1947.811870771 13391.381818182 
1967.2899894787 13869.517647059 
1986.9628893735 16852.485714286 
2006.8325182673     17558.85 
2026.9008434499     25055.95 
2047.1698518844      26540.9 
2067.6415504033     38333.31 
2088.3179659073     129944.4 
2109.2011455664     181267.5 
2130.293157022     197922.5 
2151.5960885923       222721 
2173.1120494782     257677.5 
2194.843169973 254799.66666667 
2216.7916016727     320285.5 
2238.9595176894     301762.5 
2261.3491128663     243118.5 
2283.962603995 356802.33333333 
2306.8022300349     296570.5 
2329.8702523353    137710.95 
2353.1689548586 189409.66666667 
2376.7006444072     91358.15 
2400.4676508513       136506 
2424.4723273598       425892 
2448.7170506334       482254 
2473.2042211397       262033 
2497.9362633511 257939.73913043 
2522.9156259846 182826.27037037 
2548.1447822445       527410 
2573.6262300669 487888.33333333 
2599.3624923676 309263.33333333 
2625.3561172913    1108285.5 
2651.6096784642 1403123.3333333 
2678.1257752488      1287240 
2704.9070330013 989840.33333333 
2731.9561033313 652446.33333333 
2759.2756643647       771359 
2786.8684210083     160274.5 
2814.7371052184 1115928.6666667 
2842.8844762706       765715 
2871.3133210333      1622300 
2900.0264542436      2310360 
2929.026718786      2045250 
2958.3169859739      2139200 
2987.9001558336      2185720 
3017.779157392      2331720 
3047.9569489659      2432880 
3078.4365184556      2311810 
3109.2208836401      2420545 
3140.3130924765      2338755 
3171.7162234013      2221230 
3203.4333856353      2301570 
3235.4677194916      2888790 
3267.8223966866      3304780 
3300.5006206534      3110245 
3333.50562686      3021220 
3366.8406831286      2518900 
3400.5090899598      2993145 
3434.5141808594      3225590 
3468.859322668      3435800 
3503.5479158947      3604945 
3538.5833950537      3590180 
3573.9692290042      3148150 
3609.7089212942      3526014 
3645.8060105072 4013793.3333333 
3682.2640706123      4085170 
3719.0867113184      3680115 
3756.2775784316      4540780 
3793.8403542159      3936395 
3831.778757758      3895190 
3870.0965453356      4156650 
3908.797510789      3634015 
3947.8854858969      3669210 
3987.3643407558      5765025 
4027.2379841634      5822060 
4067.510364005      5952275 
4108.1854676451      6112540 
4149.2673223215 6072576.6666667 
4190.7599955447      5856430 
4232.6675955002      5562215 
4274.9942714552      4435365 
4317.7442141697      5746495 
4360.9216563114      5821445 
4404.5308728746      6318005 
4448.5761816033 6691356.6666667 
4493.0619434193      7061505 
4537.9925628535      7141210 
4583.3724884821      7087740 
4629.2062133669      7196120 
4675.4982755006      7131555 
4722.2532582556      7295840 
4769.4757908381      7282890 
4817.1705487465      7141205 
4865.342254234 6824086.6666667 
4913.9956767763      7031720 
4963.1356335441      6872330 
5012.7669898795      6896860 
5062.8946597783      6978510 
5113.5236063761      6732380 
5164.6588424398      6428230 
5216.3054308642      6812230 
5268.4684851729 6723216.6666667 
5321.1531700246 6743713.3333333 
5374.3647017249      6693740 
5428.1083487421      6760760 
5482.3894322295 6737796.6666667 
5537.2133265518 6675876.6666667 
5592.5854598173      6691245 
5648.5113144155 6630696.6666667 
5704.9964275597 6642703.3333333 
5762.0463918353 6612723.3333333 
5819.6668557536 6589396.6666667 
5877.8635243112 6407356.6666667 
5936.6421595543 6451793.3333333 
5996.0085811498 6363943.3333333 
6055.9686669613 6289413.3333333 
6116.5283536309 6049243.3333333 
6177.6936371672 6120483.3333333 
6239.4705735389      6012380 
6301.8652792743 5958023.3333333 
6364.883932067      5909600 
6428.5327713877    5799097.5 
6492.8180991016      5766120 
6557.7462800926      5529710 
6623.3237428935 5662356.6666667 
6689.5569803225    5601487.5 
6756.4525501257      5516760 
6824.0170756269    5439552.5 
6892.2572463832 5366293.3333333 
6961.179818847    5274302.5 
7030.7916170355 5210323.3333333 
7101.0995332059      5110420 
7172.1105285379 5001796.6666667 
7243.8316338233      4962605 
7316.2699501615      4911160 
7389.4326496631    4789087.5 
7463.3269761598      4756455 
7537.9602459214      4688125 
7613.3398483806 4605153.3333333 
7689.4732468644      4535445 
7766.367979333      4485450 
7844.0316591264      4411530 
7922.4719757176    4315557.5 
8001.6966954748    4252187.5 
8081.7136624296      4186655 
8162.5307990539      4085555 
8244.1561070444      4046075 
8326.5976681148      3956505 
8409.863644796      3883266 
8493.9622812439    3648892.5 
8578.9019040564    3752232.5 
8664.6909230969      3587808 
8751.3378323279      3622745 
8838.8512106512      3559175 
8927.2397227577      3487114 
9016.5121199853      3431660 
9106.6772411851      3383196 
9197.744013597      3266575 
9289.721453733      3261300 
9382.6186682703      3173514 
9476.444854953      3113754 
9571.2093035025    3069037.5 
9666.9213965375      3016354 
9763.5906105029      2964524 
9861.226516608      2907530 
9959.838781774 2859367.3333333 
10059.437169592      2787935 
10160.031541288      2741675 
10261.631856701      2692745 
10364.248175268      2642165 
10467.89065702      2588775 
10572.56956359 2514586.6666667 
10678.295259226      2455645 
10785.078211819      2394300 
10892.928993937      2332450 
11001.858283876      2318195 
11111.876866715      2274950 
11222.995635382 2223336.6666667 
11335.225591736      2168220 
11448.577847653      2148900 
11563.06362613      2086130 
11678.694262391      2048140 
11795.481205015      1999960 
11913.436017065      1963260 
12032.570377236      1923045 
12152.896081008      1906205 
12274.425041818 1862606.6666667 
12397.169292236      1826010 
12521.140985159 1787213.3333333 
12646.35239501      1751450 
12772.81591896      1694360 
12900.54407815      1674930 
13029.549518932      1640740 
13159.845014121 1606076.6666667 
13291.443464262      1578240 
13424.357898905 1553146.6666667 
13558.601477894      1511910 
13694.187492673 1480476.6666667 
13831.129367599      1455780 
13969.440661275      1427240 
14109.135067888 1390463.3333333 
14250.226418567 1360993.3333333 
14392.728682753 1326026.6666667 
14536.65596958 1305248.3333333 
14682.022529276 1273023.3333333 
14828.842754569      1247860 
14977.131182115 1215203.3333333 
15126.902493936      1201240 
15278.171518875 1176036.6666667 
15430.953234064 1149183.3333333 
15585.262766404 1123046.6666667 
15741.115394068      1080540 
15898.526548009 1070245.7142857 
16057.511813489      1030560 
16218.086931624      1020375 
16380.26780094       972110 
16544.07047895       969028 
16709.511183739     910289.5 
16876.606295577       904918 
17045.372358532       871614 
17215.826082118     819721.5 
17387.984342939     802424.5 
17561.864186368       780797 
17737.482828232     759158.5 
17914.857656514     730228.5 
18094.006233079     686959.5 
18274.94629541       672550 
18457.695758364       654801 
18642.272715948       619788 
18828.695443107     606967.5 
19016.982397539     589784.5 
19207.152221514       566605 
19399.223743729       535266 
19593.215981166       525836 
19789.148140978     508050.5 
19987.039622388       492625 
20186.910018612       472519 
20388.779118798       458733 
20592.666909986     441219.5 
20798.593579086       426035 
21006.579514877       412624 
21216.645310025       398586 
21428.811763126       385791 
21643.099880757       364121 
21859.530879564       353851 
22078.12618836     342989.5 
22298.907450244       331849 
22521.896524746     320554.5 
22747.115489993 307535.33333333 
22974.586644893     295845.5 
23204.332511342       284310 
23436.375836456       274106 
23670.73959482       262622 
23907.446990769     256074.5 
24146.521460676 245378.66666667 
24387.986675283     235758.5 
24631.866542036       227606 
24878.185207456       220105 
25126.967059531 212013.66666667 
25378.236730126       204297 
25632.019097427 196924.33333333 
25888.339288402     190840.5 
26147.222681286 181793.33333333 
26408.694908098       175875 
26672.781857179     170183.5 
26939.509675751 165196.33333333 
27208.904772509 158650.33333333 
27480.993820234 151592.33333333 
27755.803758436       147363 
28033.361796021       142596 
28313.695413981 137069.33333333 
28596.832368121 131064.33333333 
28882.800691802 126813.66666667 
29171.62869872 121859.33333333 
29463.344985707 117431.66666667 
29757.978435564       113037 
30055.55821992 108418.66666667 
30356.113802119 104710.33333333 
30659.67494014     101073.9 
30966.271689541 97353.666666667 
31275.934406437 93951.466666667 
31588.693750501 90674.133333333 
31904.580688006     87658.36 
32223.626494886      84010.1 
32545.862759835      81121.1 
32871.321387434      77910.2 
33200.034601308      74773.5 
33532.034947321      72324.6 
33867.355296794      69795.1 
34206.028849762     66950.85 
34548.08913826      64793.5 
34893.570029642     62717.65 
35242.505729939        60027 
35594.930787238     57470.35 
35950.880095111      55182.5 
36310.388896062      53351.7 
36673.492785022     51636.85 
37040.227712872     49512.55 
37410.629990001     47400.05 
37784.736289901     45756.25 
38162.5836528        44026 
38544.209489328      42279.7 
38929.651584221      40684.4 
39318.948100064     39115.75 
39712.137581064      37555.6 
40109.258956875     36078.85 
40510.351546444      34877.4 
40915.455061908     33640.75 
41324.609612527      32364.7 
41737.855708653     31178.85 
42155.234265739      30133.2 
42576.786608396      28894.6 
43002.55447448      27567.4 
43432.580019225      26253.9 
43866.905819417      25022.7 
44305.574877612     23811.95 
44748.630626388      23074.4 
45196.116932652      22122.6 
45648.078101978 21269.166666667 
46104.558882998      20393.2 
46565.604471828      19816.2 
47031.260516546 19113.233333333 
47501.573121712     18374.95 
47976.588852929     17809.95 
48456.354741458      17151.2 
48940.918288873     16513.85 
49430.327471761      15899.4 
49924.630746479     15309.95 
50423.877053944 14744.766666667 
50928.115824483      14192.6 
51437.396982728 13721.833333333 
51951.770952555      13204.8 
52471.288662081 12763.266666667 
52996.001548702      12227.5 
53525.961564189     11813.45 
54061.221179831 11398.833333333 
54601.833391629      10937.2 
55147.851725545     10580.15 
55699.330242801      10230.1 
56256.323545229 9831.7466666667 
56818.886780681 9445.1433333333 
57387.075648488      9086.16 
57960.946404973      8738.29 
58540.555869022      8393.36 
59125.961427713 8084.6933333333 
59717.22104199      7789.63 
60314.39325241      7495.43 
60917.537184934 7217.3933333333 
61526.712556783      6960.78 
62141.979682351 6699.6333333333 
62763.399479174 6460.6266666667 
63391.033473966 6232.1533333333 
64024.943808706      5964.23 
64665.193246793      5761.08 
65311.845179261      5564.64 
65964.963631053      5308.56 
66624.613267364      5125.67 
67290.859400038      4949.36 
67963.767994038     4730.095 
68643.405673978      4571.33 
69329.839730718     4419.945 
70023.138128025     4226.835 
70723.369509305      4045.79 
71430.603204399      3914.96 
72144.909236443     3789.735 
72866.358328807      3630.71 
73595.021912095     3479.905 
74330.972131216     3328.055 
75074.281852528      3200.75 
75825.024671053      3103.27 
76583.274917764      3009.58 
77349.107666942      2890.44 
78122.598743611       2776.8 
78903.824731047      2668.52 
79692.862978358     2565.325 
80489.791608141      2467.16 
81294.689524223     2373.275 
82107.636419465     2285.055 
82928.712783659      2199.79 
83757.999911496     2119.025 
84595.579910611 2023.2866666667 
85441.535709717      1932.37 
86295.951066814     1863.535 
87158.910577482      1796.98 
88030.499683257     1734.325 
88910.80468009      1674.14 
89799.912726891 1602.5666666667 
90697.91185416     1534.295 
91604.890972701     1483.045 
92520.939882428 1421.4766666667 
93446.149281253      1362.77 
94380.610774065      1318.19 
95324.416881806 1264.9733333333 
96277.661050624     1214.265 
97240.43766113 1166.0066666667 
98212.842037741     1120.545 
99194.970458119      1085.43 
100186.9201627      1060.28 
199060.83304441      68.9199 
399467.9878358      4.34252 
594753.39981818     0.855449 
793700.71765891      0.26948 
997811.18987739      0.10987 
1193529.3359837      0.05275 
1399507.0114645    0.0283528 
