#  WAVELENGTH	        FLUX	
#  (ANGSTROM)	(ERG/CM2/S/A)	
############	############	
        90.9   0.00337009 
    92.72709   0.00869101 
95.53681355409    0.0208969 
97.457103506527    0.0359154 
99.415991287008    0.0655925 
101.41425271188     0.135918 
103.45267919139     0.229725 
105.53207804313     0.381279 
107.6532728118     0.673933 
109.81710359532       1.3569 
113.14467165136      3.27391 
117.73879903054      7.79233 
120.10534889105      16.6337 
123.7446610678      33.7545 
126.23192875526      52.7839 
127.49424804281      69.2742 
130.05688242847       101.41 
131.35745125276      142.145 
132.67102576529      184.497 
135.33771338317      288.591 
139.43858143639      484.096 
142.24129692326      820.574 
146.55135046134      1386.22 
150.99200293167      2407.33 
154.02694219059      4152.04 
158.69411256591      6506.07 
161.88386422848      10400.3 
165.13772989948      16482.3 
170.14156825316      25372.9 
171.84298393569      34511.2 
175.2970279128      48751.1 
178.82049817385      67930.3 
180.60870315558        74744 
186.0813274699       114803 
189.82156215205       170959 
193.6369755513       223810 
197.52907875988       316659 
201.49941324296       395831 
203.51440737539       513464 
209.68109743327       749019 
216.03464436659      1081770 
218.19499081026      1372190 
222.58071012555      1636190 
224.8065172268      2013860 
229.32512822306    176871000 
233.93456330034   1914060000 
238.63664802268   6595400000 
245.86757709442  19990300000 
250.80951539401  51072300000 
255.85078665343  72328200000 
258.40929451997  81164300000 
263.60332133982 159090000000 
266.23935455322 171052000000 
271.59076557974 192328000000 
277.04973996789 156429000000 
282.61843974125 232752000000 
288.29907038004 289500000000 
294.09388169468 246197000000 
300.00516871675 143934000000 
306.03527260795 160356000000 
315.30844740325  85915700000 
324.86260866801  95705700000 
334.70627057326  68217500000 
344.8482052779  68639900000 
355.29745074603 136833000000 
362.43892950602 216877000000 
373.42119150899 250398000000 
384.7362270329 205705000000 
392.46942519626 294406000000 
404.36164124913 375961000000 
412.48931023824 375199000000 
420.78034537403 345454000000 
429.23803031605 326975000000 
437.8657147254 384808000000 
446.66681559138 385860000000 
455.64481858477 347319000000 
469.4513122327 360461000000 
478.88728360858 384055000000 
488.51291800911 342147000000 
498.3320276611 398142000000 
503.31534793771 347337000000 
508.34850141708 389745000000 
518.56630629557 371896000000 
528.98948905211 349168000000 
539.62217778206 297702000000 
545.01839955988 255666000000 
555.97326939103 313481000000 
567.14833210579 332275000000 
578.54801358112 327691000000 
584.33349371693 323398000000 
596.07859694064 295576000000 
608.05977673914 253921000000 
614.14037450653 295190000000 
626.48459603412 266578000000 
639.0769364144 290246000000 
645.46770577855 273198000000 
651.92238283633 252639000000 
658.44160666469 273101000000 
671.67628295866 268583000000 
678.39304578824 246090000000 
692.02874600859 257754000000 
698.94903346867 234933000000 
712.99790904139 244062000000 
720.12788813181 243610000000 
734.60245868325 237590000000 
741.94848327009 227569000000 
749.36796810279 219684000000 
764.43026426165 200994000000 
772.07456690427 210405000000 
779.79531257331 193921000000 
787.59326569905 199808000000 
803.4238903396 199427000000 
811.45812924299 195317000000 
819.57271053542 192000000000 
827.76843764078 177352000000 
844.40658323736 182507000000 
852.85064906973 173744000000 
861.37915556043 175610000000 
869.99294711603 172825000000 
878.69287658719 166950000000 
887.47980535306 163376000000 
896.3546034066 157721000000 
914.37133093507 119887000000 
923.51504424442 180905000000 
932.75019468686 216456000000 
942.07769663373 233971000000 
951.49847360007 254674000000 
961.01345833607 260354000000 
970.62359291943 216878000000 
980.32982884862 238586000000 
990.13312713711 216831000000 
1000.0344584085 220893000000 
1010.0348029926 218595000000 
1020.1351510225 200133000000 
1030.3365025327 219298000000 
1040.639867558 218009000000 
1051.0462662336 212799000000 
1061.556728896 202610000000 
1072.1722961849 203223000000 
1082.8940191468 190803000000 
1093.7229593382 193011000000 
1104.6601889316 186045000000 
1115.7067908209 177872000000 
1126.8638587291 177743000000 
1138.1324973164 174620000000 
1149.5138222896 168464000000 
1161.0089605125 160957000000 
1172.6190501176 150801000000 
1184.3452406188 151963000000 
1196.188693025 146354000000 
1208.1505799552 126864000000 
1220.2320857548 139518000000 
1232.4344066123 132288000000 
1244.7587506785 129166500000 
1257.2063381852 127555000000 
1269.7784015671 124899000000 
1282.4761855828 121442000000 
1295.3009474386 116072000000 
1308.253956913 113715000000 
1321.3364964821 110827000000 
1334.5498614469 107702000000 
1347.8953600614 102356000000 
1361.374313662  97887600000 
1374.9880567986  94347550000 
1388.7379373666  92073200000 
1402.6253167403  89766250000 
1416.6515699077  88036800000 
1430.8180856068 86555064705.882 
1445.1262664628  82899200000 
1459.5775291275  80865700000 
1474.1733044187  79769500000 
1488.9150374629  77420200000 
1503.8041878376 75134927272.727 
1518.8422297159  73328300000 
1534.0306520131  67426300000 
1549.3709585332  63978100000 
1564.8646681186  65942800000 
1580.5133147997  63623900000 
1596.3184479477  61202000000 
1612.2816324272  59522900000 
1628.4044487515  58059300000 
1644.688493239  55808300000 
1661.1353781714  55044200000 
1677.7467319531  54230700000 
1694.5241992726  52738150000 
1711.4694412654  49781750000 
1728.584135678  49187400000 
1745.8699770348  47706300000 
1763.3286768051  46503800000 
1780.9619635732  44879550000 
1798.7715832089  43175350000 
1816.759299041  42070500000 
1834.9268920314  41028850000 
1853.2761609517  39608450000 
1871.8089225613  38207650000 
1890.5270117869  37092550000 
1909.4322819047  35633650000 
1928.5266047238  34647900000 
1947.811870771 33356854545.455 
1967.2899894787 32344241176.471 
1986.9628893735 31313685714.286 
2006.8325182673  30310200000 
2026.9008434499  29219300000 
2047.1698518844  22149650000 
2067.6415504033  22900765000 
2088.3179659073  26161400000 
2109.2011455664  25733500000 
2130.293157022  24932150000 
2151.5960885923  24158850000 
2173.1120494782  23561600000 
2194.843169973 22775033333.333 
2216.7916016727  22135600000 
2238.9595176894  21189150000 
2261.3491128663  20835500000 
2283.962603995 19825433333.333 
2306.8022300349  19301000000 
2329.8702523353  18754150000 
2353.1689548586  18040500000 
2376.7006444072  17098500000 
2400.4676508513  16814800000 
2424.4723273598 16301566666.667 
2448.7170506334  15686200000 
2473.2042211397 15040566666.667 
2497.9362633511 14326843478.261 
2522.9156259846 14131559259.259 
2548.1447822445  13714650000 
2573.6262300669  13212500000 
2599.3624923676 12713366666.667 
2625.3561172913  12308500000 
2651.6096784642 11893966666.667 
2678.1257752488  11506600000 
2704.9070330013  11156700000 
2731.9561033313 10637666666.667 
2759.2756643647 10314033333.333 
2786.8684210083   9988310000 
2814.7371052184 9680946666.6667 
2842.8844762706 9324543333.3333 
2871.3133210333 8975806666.6667 
2900.0264542436   8713890000 
2929.026718786   8405730000 
2958.3169859739   8098020000 
2987.9001558336   7802595000 
3017.779157392   7513760000 
3047.9569489659   7253430000 
3078.4365184556   7023180000 
3109.2208836401   6781230000 
3140.3130924765   6482160000 
3171.7162234013   6266560000 
3203.4333856353   6016160000 
3235.4677194916   5862890000 
3267.8223966866   5656965000 
3300.5006206534   5422915000 
3333.50562686   5235130000 
3366.8406831286   5076795000 
3400.5090899598   4863620000 
3434.5141808594   4709710000 
3468.859322668   4569375000 
3503.5479158947   4386760000 
3538.5833950537   4208760000 
3573.9692290042   4081790000 
3609.7089212942   3927774000 
3645.8060105072 3421873333.3333 
3682.2640706123   3331740000 
3719.0867113184   3313530000 
3756.2775784316   3321580000 
3793.8403542159   3242840000 
3831.778757758   3211455000 
3870.0965453356   2970100000 
3908.797510789   3046115000 
3947.8854858969   2861180000 
3987.3643407558   2843110000 
4027.2379841634   2724690000 
4067.510364005   2625100000 
4108.1854676451   2484400000 
4149.2673223215 2438803333.3333 
4190.7599955447   2320995000 
4232.6675955002   2255575000 
4274.9942714552   2177640000 
4317.7442141697   2033685000 
4360.9216563114   2029785000 
4404.5308728746   1962830000 
4448.5761816033 1881953333.3333 
4493.0619434193   1804985000 
4537.9925628535   1734885000 
4583.3724884821   1692140000 
4629.2062133669   1619940000 
4675.4982755006   1537065000 
4722.2532582556   1512695000 
4769.4757908381 1453873333.3333 
4817.1705487465   1387895000 
4865.342254234   1321360000 
4913.9956767763   1294145000 
4963.1356335441   1246260000 
5012.7669898795   1200310000 
5062.8946597783 1156613333.3333 
5113.5236063761   1114555000 
5164.6588424398   1074680000 
5216.3054308642   1036280000 
5268.4684851729 999787666.66667 
5321.1531700246 958091666.66667 
5374.3647017249    917327500 
5428.1083487421 893175666.66667 
5482.3894322295    856819000 
5537.2133265518    821974000 
5592.5854598173    794929500 
5648.5113144155 765480333.33333 
5704.9964275597    692227000 
5762.0463918353 666342666.66667 
5819.6668557536    647185000 
5877.8635243112 633342666.66667 
5936.6421595543    622994000 
5996.0085811498 607401666.66667 
6055.9686669613 586002333.33333 
6116.5283536309 564363333.33333 
6177.6936371672 543994333.33333 
6239.4705735389 524988333.33333 
6301.8652792743 505239333.33333 
6364.883932067    487048000 
6428.5327713877    468506000 
6492.8180991016 446544666.66667 
6557.7462800926 425547333.33333 
6623.3237428935    418951000 
6689.5569803225    401466500 
6756.4525501257    387083000 
6824.0170756269    370944500 
6892.2572463832 357873333.33333 
6961.179818847    344355250 
7030.7916170355 331310666.66667 
7101.0995332059    318361000 
7172.1105285379 306848333.33333 
7243.8316338233    296157750 
7316.2699501615 285456666.66667 
7389.4326496631    275210000 
7463.3269761598    264083750 
7537.9602459214    252531750 
7613.3398483806 244676666.66667 
7689.4732468644    236194750 
7766.367979333    227032000 
7844.0316591264    218242250 
7922.4719757176    209904000 
8001.6966954748    201954750 
8081.7136624296    194377750 
8162.5307990539    182801750 
8244.1561070444    172794750 
8326.5976681148    166718000 
8409.863644796    160584400 
8493.9622812439    155117500 
8578.9019040564    150682750 
8664.6909230969    145745400 
8751.3378323279    142143250 
8838.8512106512    136513500 
8927.2397227577    131971400 
9016.5121199853    127287250 
9106.6772411851    123132600 
9197.744013597    116520250 
9289.721453733    113648600 
9382.6186682703    109600800 
9476.444854953    103584220 
9571.2093035025    101385000 
9666.9213965375     97765240 
9763.5906105029     93844520 
9861.226516608     90341460 
9959.838781774 86663253.333333 
10059.437169592     82385550 
10160.031541288     80730200 
10261.631856701     77703500 
10364.248175268     74641150 
10467.89065702     72097550 
10572.56956359 68847433.333333 
10678.295259226     65767450 
10785.078211819     63395750 
10892.928993937     60098500 
11001.858283876     59057500 
11111.876866715     57030000 
11222.995635382 54614366.666667 
11335.225591736     52305100 
11448.577847653     50547550 
11563.06362613 48175466.666667 
11678.694262391     46462900 
11795.481205015     44945600 
11913.436017065     43133600 
12032.570377236     41413050 
12152.896081008     40097700 
12274.425041818     38529300 
12397.169292236     37031750 
12521.140985159 35609933.333333 
12646.35239501     34251000 
12772.81591896     32546800 
12900.54407815     31489800 
13029.549518932     30324150 
13159.845014121 29215466.666667 
13291.443464262     28152500 
13424.357898905     27141300 
13558.601477894 25985433.333333 
13694.187492673 24889766.666667 
13831.129367599     24019750 
13969.440661275 23189866.666667 
14109.135067888     22237900 
14250.226418567     21334600 
14392.728682753 20477533.333333 
14536.65596958 19665693.333333 
14682.022529276 18830566.666667 
14828.842754569 18191766.666667 
14977.131182115     17487300 
15126.902493936 16817666.666667 
15278.171518875 16168133.333333 
15430.953234064     15554900 
15585.262766404 14971066.666667 
15741.115394068     14416600 
15898.526548009 13837385.714286 
16057.511813489     13273000 
16218.086931624     12835350 
16380.26780094     12317000 
16544.07047895     11956250 
16709.511183739     11339050 
16876.606295577     11009000 
17045.372358532     10631450 
17215.826082118     10089040 
17387.984342939      9699620 
17561.864186368      9381290 
17737.482828232      9073100 
17914.857656514      8680670 
18094.006233079      8238070 
18274.94629541      7957465 
18457.695758364      7706640 
18642.272715948      7344075 
18828.695443107      7157275 
19016.982397539      6864620 
19207.152221514      6586245 
19399.223743729      6262470 
19593.215981166      6073195 
19789.148140978      5834815 
19987.039622388      5608070 
20186.910018612      5392185 
20388.779118798      5186360 
20592.666909986      4989775 
20798.593579086      4803785 
21006.579514877      4625425 
21216.645310025      4455680 
21428.811763126      4293270 
21643.099880757      4070240 
21859.530879564      3918960 
22078.12618836      3780595 
22298.907450244      3648280 
22521.896524746      3521690 
22747.115489993 3373183.3333333 
22974.586644893      3231100 
23204.332511342      3122250 
23436.375836456 2992793.3333333 
23670.73959482      2869530 
23907.446990769      2775625 
24146.521460676 2663756.6666667 
24387.986675283      2557100 
24631.866542036      2455990 
24878.185207456      2359635 
25126.967059531 2268143.3333333 
25378.236730126      2180860 
25632.019097427 2097093.3333333 
25888.339288402      2018010 
26147.222681286      1923800 
26408.694908098      1857240 
26672.781857179      1784095 
26939.509675751 1724366.6666667 
27208.904772509 1650246.6666667 
27480.993820234 1574666.6666667 
27755.803758436      1524315 
28033.361796021 1471163.3333333 
28313.695413981 1410293.3333333 
28596.832368121      1346170 
28882.800691802 1297693.3333333 
29171.62869872 1245626.6666667 
29463.344985707      1196120 
29757.978435564 1149036.6666667 
30055.55821992      1099790 
30356.113802119 1059303.3333333 
30659.67494014 1021016.6666667 
30966.271689541       982340 
31275.934406437 945454.66666667 
31588.693750501       910305 
31904.580688006     877840.8 
32223.626494886     839585.5 
32545.862759835       809170 
32871.321387434       774881 
33200.034601308       743926 
33532.034947321       717775 
33867.355296794       692855 
34206.028849762       661218 
34548.08913826       638609 
34893.570029642     617088.5 
35242.505729939       589678 
35594.930787238       563785 
35950.880095111     539277.5 
36310.388896062       521726 
36673.492785022       504975 
37040.227712872       482161 
37410.629990001       460970 
37784.736289901     444139.5 
38162.5836528     425916.5 
38544.209489328       408620 
38929.651584221     392047.5 
39318.948100064       376565 
39712.137581064     361582.5 
40109.258956875       344821 
40510.351546444     334142.5 
40915.455061908     321338.5 
41324.609612527     308540.5 
41737.855708653     297519.5 
42155.234265739     286431.5 
42576.786608396       275858 
43002.55447448     265766.5 
43432.580019225     255435.5 
43866.905819417       244595 
44305.574877612     233906.5 
44748.630626388     225720.5 
45196.116932652       217849 
45648.078101978 208511.66666667 
46104.558882998       197719 
46565.604471828       191761 
47031.260516546 184842.66666667 
47501.573121712     177196.5 
47976.588852929       171373 
48456.354741458 164438.33333333 
48940.918288873     157823.5 
49430.327471761 151554.66666667 
49924.630746479       145576 
50423.877053944       139909 
50928.115824483       133568 
51437.396982728 129342.66666667 
51951.770952555     124450.5 
52471.288662081       119785 
52996.001548702 114462.33333333 
53525.961564189     110243.5 
54061.221179831       106231 
54601.833391629 101644.33333333 
55147.851725545      98003.5 
55699.330242801 94536.766666667 
56256.323545229      90568.1 
56818.886780681 86785.766666667 
57387.075648488      83235.7 
57960.946404973 79851.433333333 
58540.555869022 76147.966666667 
59125.961427713 73491.033333333 
59717.22104199 70675.066666667 
60314.39325241      67909.6 
60917.537184934      65277.1 
61526.712556783 62770.333333333 
62141.979682351      60380.8 
62763.399479174 57991.966666667 
63391.033473966      55937.4 
64024.943808706 53438.742857143 
64665.193246793      51569.7 
65311.845179261      49704.1 
65964.963631053        47339 
66624.613267364      45652.4 
67290.859400038      43934.3 
67963.767994038     42012.05 
68643.405673978        40558 
69329.839730718     39173.15 
70023.138128025     37412.45 
70723.369509305     35749.65 
71430.603204399      34560.4 
72144.909236443      33424.3 
72866.358328807      31978.4 
73595.021912095      30608.2 
74330.972131216      28808.4 
75074.281852528     28069.45 
75825.024671053      27203.5 
76583.274917764     26359.85 
77349.107666942      25282.3 
78122.598743611      24259.9 
78903.824731047     23288.15 
79692.862978358     22364.65 
80489.791608141     21486.25 
81294.689524223     20643.75 
82107.636419465     19855.05 
82928.712783659      19097.3 
83757.999911496     18375.15 
84595.579910611      17521.4 
85441.535709717      16713.1 
86295.951066814     16085.55 
87158.910577482     15426.95 
88030.499683257        14959 
88910.80468009     14425.75 
89799.912726891      13793.5 
90697.91185416        13193 
91604.890972701      12736.7 
92520.939882428      12194.6 
93446.149281253     11652.65 
94380.610774065      11286.9 
95324.416881806 10820.533333333 
96277.661050624      10376.2 
97240.43766113      9955.72 
98212.842037741     9554.925 
99194.970458119      9249.38 
100186.9201627      9027.62 
199060.83304441      553.936 
399467.9878358      33.5243 
594753.39981818      6.48667 
793700.71765891      2.02116 
997811.18987739     0.817807 
1193529.3359837     0.390414 
1399507.0114645     0.208912 
