#  WAVELENGTH	        FLUX	
#  (ANGSTROM)	(ERG/CM2/S/A)	
############	############	
123.7446610678  1.42639E-22 
126.23192875526  6.69371E-22 
127.49424804281  1.44547E-21 
130.05688242847  4.81446E-21 
131.35745125276  1.37935E-20 
132.67102576529   3.0953E-20 
135.33771338317   1.2708E-19 
139.43858143639   6.3416E-19 
142.24129692326  3.40351E-18 
146.55135046134  2.02693E-17 
150.99200293167  1.06285E-16 
154.02694219059  6.07817E-16 
158.69411256591  2.52982E-15 
161.88386422848  8.56198E-15 
165.13772989948  3.69773E-14 
170.14156825316  1.65905E-13 
171.84298393569  4.69265E-13 
175.2970279128  1.41107E-12 
178.82049817385  4.08158E-12 
180.60870315558  6.44362E-12 
186.0813274699  2.36525E-11 
189.82156215205  9.41654E-11 
193.6369755513  2.06686E-10 
197.52907875988  6.70204E-10 
201.49941324296   1.57674E-9 
203.51440737539   3.44009E-9 
209.68109743327   1.24624E-8 
216.03464436659   4.42284E-8 
218.19499081026   9.52117E-8 
222.58071012555    1.8443E-7 
224.8065172268   3.94791E-7 
229.32512822306   7.11174E-6 
233.93456330034   1.72781E-5 
238.63664802268   4.67892E-5 
245.86757709442  0.000130028 
250.80951539401  0.000317597 
255.85078665343  0.000580179 
258.40929451997  0.000935026 
263.60332133982   0.00160409 
266.23935455322   0.00288295 
271.59076557974   0.00539695 
277.04973996789   0.00991633 
282.61843974125    0.0189477 
288.29907038004    0.0370328 
294.09388169468    0.0703058 
300.00516871675     0.117571 
306.03527260795     0.230282 
315.30844740325      0.60311 
324.86260866801      1.43266 
334.70627057326      3.29304 
344.8482052779      7.12778 
355.29745074603      14.1417 
362.43892950602      26.6335 
373.42119150899      47.5249 
384.7362270329      88.6007 
392.46942519626      159.244 
404.36164124913       277.36 
412.48931023824      447.998 
420.78034537403      667.155 
429.23803031605      982.861 
437.8657147254       1639.7 
446.66681559138      2549.86 
455.64481858477      3707.47 
469.4513122327      5554.58 
478.88728360858      8132.23 
488.51291800911      11753.5 
498.3320276611      16696.7 
503.31534793771       123850 
508.34850141708       540382 
518.56630629557       673894 
528.98948905211       916439 
539.62217778206      1035630 
545.01839955988      1491730 
555.97326939103      1783100 
567.14833210579      2249710 
578.54801358112      2279200 
584.33349371693      3054980 
596.07859694064      3729420 
608.05977673914      4531990 
614.14037450653      5205810 
626.48459603412      6056080 
639.0769364144      6549180 
645.46770577855      6609850 
651.92238283633      8642990 
658.44160666469      9595760 
671.67628295866     10549700 
678.39304578824     11718800 
692.02874600859     14024900 
698.94903346867     15357200 
712.99790904139     17517600 
720.12788813181     19138300 
734.60245868325     20826600 
741.94848327009     23640600 
749.36796810279     26101000 
764.43026426165     28704800 
772.07456690427     31647000 
779.79531257331     34703400 
787.59326569905     37253100 
803.4238903396     40215100 
811.45812924299     43021700 
819.57271053542     47205300 
827.76843764078     48570000 
844.40658323736     53152000 
852.85064906973     56754900 
861.37915556043     61321000 
869.99294711603     66393200 
878.69287658719     71808400 
887.47980535306     76406600 
896.3546034066     78770500 
914.37133093507    121624000 
923.51504424442    727066000 
932.75019468686   2379300000 
942.07769663373   7146270000 
951.49847360007  10925700000 
961.01345833607  14025100000 
970.62359291943   2704060000 
980.32982884862  15115800000 
990.13312713711  14449700000 
1000.0344584085  16272900000 
1010.0348029926  14992100000 
1020.1351510225   4590150000 
1030.3365025327  11077300000 
1040.639867558  18182000000 
1051.0462662336  17074300000 
1061.556728896  14453700000 
1072.1722961849  16466100000 
1082.8940191468  14661200000 
1093.7229593382  16379100000 
1104.6601889316  14688350000 
1115.7067908209  12849500000 
1126.8638587291  15148800000 
1138.1324973164  13675500000 
1149.5138222896  14247200000 
1161.0089605125  14352200000 
1172.6190501176  10383200000 
1184.3452406188  13002800000 
1196.188693025   7996300000 
1208.1505799552   3625360000 
1220.2320857548   9993490000 
1232.4344066123  12554300000 
1244.7587506785  12517600000 
1257.2063381852  12072000000 
1269.7784015671  12453500000 
1282.4761855828  10778750000 
1295.3009474386   9481840000 
1308.253956913  11667100000 
1321.3364964821  10986900000 
1334.5498614469  10513700000 
1347.8953600614  10628800000 
1361.374313662   9888020000 
1374.9880567986   9718000000 
1388.7379373666   8290850000 
1402.6253167403   8752695000 
1416.6515699077   8760840000 
1430.8180856068 8899497647.0588 
1445.1262664628 8686000769.2308 
1459.5775291275   8128510000 
1474.1733044187   8003990000 
1488.9150374629   7803210000 
1503.8041878376 6962155454.5455 
1518.8422297159   6955900000 
1534.0306520131   6268240000 
1549.3709585332   6003940000 
1564.8646681186   6375640000 
1580.5133147997   6416220000 
1596.3184479477   6322440000 
1612.2816324272   6160570000 
1628.4044487515   6292670000 
1644.688493239   6118555000 
1661.1353781714 6116911363.6364 
1677.7467319531   6088370000 
1694.5241992726   5709535000 
1711.4694412654   5311125000 
1728.584135678   5334660000 
1745.8699770348   5327010000 
1763.3286768051   5023865000 
1780.9619635732   5036290000 
1798.7715832089   4873310000 
1816.759299041   4799650000 
1834.9268920314   4469710000 
1853.2761609517   4261115000 
1871.8089225613   4258030000 
1890.5270117869   3920525000 
1909.4322819047   3777865000 
1928.5266047238   3883675000 
1947.811870771 3723613636.3636 
1967.2899894787 3836381176.4706 
1986.9628893735 3647709047.619 
2006.8325182673   3699185000 
2026.9008434499   3485325000 
2047.1698518844   3414460000 
2067.6415504033   3443162500 
2088.3179659073   3260155000 
2109.2011455664   3299545000 
2130.293157022   3176180000 
2151.5960885923   3178880000 
2173.1120494782   3081625000 
2194.843169973 3017033333.3333 
2216.7916016727   2890290000 
2238.9595176894   2839020000 
2261.3491128663   2798115000 
2283.962603995 2705056666.6667 
2306.8022300349   2603890000 
2329.8702523353   2500670000 
2353.1689548586 2458653333.3333 
2376.7006444072   2387175000 
2400.4676508513   2323495000 
2424.4723273598 2274873333.3333 
2448.7170506334   2223765000 
2473.2042211397   2134850000 
2497.9362633511 2074545652.1739 
2522.9156259846 2004072222.2222 
2548.1447822445   1975770000 
2573.6262300669   1940540000 
2599.3624923676 1887383333.3333 
2625.3561172913   1846320000 
2651.6096784642 1799033333.3333 
2678.1257752488   1750995000 
2704.9070330013 1701763333.3333 
2731.9561033313 1640753333.3333 
2759.2756643647   1602170000 
2786.8684210083   1543290000 
2814.7371052184 1513973333.3333 
2842.8844762706 1479516666.6667 
2871.3133210333 1438586666.6667 
2900.0264542436   1401290000 
2929.026718786   1352765000 
2958.3169859739   1319960000 
2987.9001558336   1276850000 
3017.779157392   1246450000 
3047.9569489659   1210365000 
3078.4365184556   1169990000 
3109.2208836401   1141595000 
3140.3130924765   1098455000 
3171.7162234013   1058730000 
3203.4333856353   1038145000 
3235.4677194916   1009830000 
3267.8223966866    982357000 
3300.5006206534    948178000 
3333.50562686    920804000 
3366.8406831286    897973000 
3400.5090899598    864639000 
3434.5141808594    836799000 
3468.859322668    817334500 
3503.5479158947    793035000 
3538.5833950537    769393500 
3573.9692290042    746177000 
3609.7089212942    726783400 
3645.8060105072 702739333.33333 
3682.2640706123    673037000 
3719.0867113184    661769500 
3756.2775784316    710021000 
3793.8403542159    713629000 
3831.778757758    788836500 
3870.0965453356    628602000 
3908.797510789    773293500 
3947.8854858969    670955000 
3987.3643407558    724959500 
4027.2379841634    693618000 
4067.510364005    659921500 
4108.1854676451    598630000 
4149.2673223215 636697333.33333 
4190.7599955447    616025500 
4232.6675955002    591411000 
4274.9942714552    572193000 
4317.7442141697    487687000 
4360.9216563114    528633000 
4404.5308728746    521309000 
4448.5761816033    495444000 
4493.0619434193    484960500 
4537.9925628535    469830000 
4583.3724884821    455563000 
4629.2062133669    437628000 
4675.4982755006    419855000 
4722.2532582556    408280000 
4769.4757908381    395924000 
4817.1705487465    366360000 
4865.342254234    346394000 
4913.9956767763    350669000 
4963.1356335441 341134666.66667 
5012.7669898795    329299500 
5062.8946597783 319937333.33333 
5113.5236063761    308018500 
5164.6588424398 298432333.33333 
5216.3054308642    288774000 
5268.4684851729 279237333.33333 
5321.1531700246    268156000 
5374.3647017249    259660000 
5428.1083487421 251027333.33333 
5482.3894322295 241648333.33333 
5537.2133265518    232580000 
5592.5854598173    225265500 
5648.5113144155 217565333.33333 
5704.9964275597 210125333.33333 
5762.0463918353 202601333.33333 
5819.6668557536 193269333.33333 
5877.8635243112 187835666.66667 
5936.6421595543 181406333.33333 
5996.0085811498 175168666.66667 
6055.9686669613    169086000 
6116.5283536309 163133333.33333 
6177.6936371672    157661000 
6239.4705735389    152246000 
6301.8652792743    147024000 
6364.883932067 142164666.66667 
6428.5327713877    136733750 
6492.8180991016 129527333.33333 
6557.7462800926 120409333.33333 
6623.3237428935 122839333.33333 
6689.5569803225    118420000 
6756.4525501257 114236666.66667 
6824.0170756269    110185250 
6892.2572463832    106197000 
6961.179818847    102414000 
7030.7916170355 98236366.666667 
7101.0995332059     95286475 
7172.1105285379     91715600 
7243.8316338233     88628900 
7316.2699501615     85780100 
7389.4326496631     82869025 
7463.3269761598     79680325 
7537.9602459214     76682650 
7613.3398483806     74154100 
7689.4732468644     71728250 
7766.367979333     69013125 
7844.0316591264     66559100 
7922.4719757176     64058300 
8001.6966954748     61738750 
8081.7136624296     59535325 
8162.5307990539     57411825 
8244.1561070444     55369025 
8326.5976681148     53397325 
8409.863644796     51219520 
8493.9622812439     49210700 
8578.9019040564     47465850 
8664.6909230969     45355060 
8751.3378323279     45785875 
8838.8512106512     42537725 
8927.2397227577     42152980 
9016.5121199853     40850775 
9106.6772411851     40445240 
9197.744013597     36521075 
9289.721453733     37640620 
9382.6186682703     36178060 
9476.444854953     32984320 
9571.2093035025     33439375 
9666.9213965375     32453640 
9763.5906105029     31256300 
9861.226516608     30065540 
9959.838781774 28423206.666667 
10059.437169592     27092600 
10160.031541288     26983450 
10261.631856701     25965800 
10364.248175268     25086650 
10467.89065702     24196250 
10572.56956359 23123266.666667 
10678.295259226     22139900 
10785.078211819     21214850 
10892.928993937     19553200 
11001.858283876     19857850 
11111.876866715     19284800 
11222.995635382 18479166.666667 
11335.225591736     17731200 
11448.577847653     17156050 
11563.06362613     16466600 
11678.694262391     15810250 
11795.481205015     15313000 
11913.436017065     14668300 
12032.570377236     14147150 
12152.896081008     13711900 
12274.425041818     13191900 
12397.169292236     12693650 
12521.140985159 12212733.333333 
12646.35239501     11765200 
12772.81591896     10942700 
12900.54407815 10821933.333333 
13029.549518932     10460150 
13159.845014121 10088586.666667 
13291.443464262      9733090 
13424.357898905      9391030 
13558.601477894 9005456.6666667 
13694.187492673      8637050 
13831.129367599      8343385 
13969.440661275 8063826.6666667 
14109.135067888      7742940 
14250.226418567      7437680 
14392.728682753 7147063.3333333 
14536.65596958 6870316.6666667 
14682.022529276 6608946.6666667 
14828.842754569 6360176.6666667 
14977.131182115 6117746.6666667 
15126.902493936      5892570 
15278.171518875 5669843.3333333 
15430.953234064 5456603.3333333 
15585.262766404 5253116.6666667 
15741.115394068 5059716.6666667 
15898.526548009 4891702.8571429 
16057.511813489      4634610 
16218.086931624      4560790 
16380.26780094      4298930 
16544.07047895      4284065 
16709.511183739      3993625 
16876.606295577      3950720 
17045.372358532      3811200 
17215.826082118      3571535 
17387.984342939      3485870 
17561.864186368      3382230 
17737.482828232      3273090 
17914.857656514      3133330 
18094.006233079      2925845 
18274.94629541      2879700 
18457.695758364      2788510 
18642.272715948      2636330 
18828.695443107      2593435 
19016.982397539      2487550 
19207.152221514      2390280 
19399.223743729      2239470 
19593.215981166      2211075 
19789.148140978      2126230 
19987.039622388      2045335 
20186.910018612      1968295 
20388.779118798      1892615 
20592.666909986      1824725 
20798.593579086      1757885 
21006.579514877      1691095 
21216.645310025      1633065 
21428.811763126      1572555 
21643.099880757 1478426.6666667 
21859.530879564      1440265 
22078.12618836      1390350 
22298.907450244      1342770 
22521.896524746      1297130 
22747.115489993      1242880 
22974.586644893      1191205 
23204.332511342      1152105 
23436.375836456      1105370 
23670.73959482      1060810 
23907.446990769      1026785 
24146.521460676       986133 
24387.986675283       947296 
24631.866542036       910071 
24878.185207456       874817 
25126.967059531 841313.66666667 
25378.236730126       811189 
25632.019097427       778781 
25888.339288402     751005.5 
26147.222681286       707978 
26408.694908098 693598.66666667 
26672.781857179     659255.5 
26939.509675751 646456.66666667 
27208.904772509 618639.66666667 
27480.993820234 584627.33333333 
27755.803758436       572674 
28033.361796021       553036 
28313.695413981       530372 
28596.832368121 500572.66666667 
28882.800691802 488849.66666667 
29171.62869872       469563 
29463.344985707 451194.66666667 
29757.978435564       433716 
30055.55821992 412284.66666667 
30356.113802119 398428.33333333 
30659.67494014 386109.66666667 
30966.271689541 371723.66666667 
31275.934406437       357998 
31588.693750501       344888 
31904.580688006       332779 
32223.626494886     318490.5 
32545.862759835       307098 
32871.321387434       291243 
33200.034601308       282318 
33532.034947321       272623 
33867.355296794     263325.5 
34206.028849762     251500.5 
34548.08913826       243038 
34893.570029642     234971.5 
35242.505729939     224694.5 
35594.930787238       214977 
35950.880095111       205766 
36310.388896062       199101 
36673.492785022     192805.5 
37040.227712872     183509.5 
37410.629990001       175443 
37784.736289901       170021 
38162.5836528     163181.5 
38544.209489328       156784 
38929.651584221     150063.5 
39318.948100064       144761 
39712.137581064     138709.5 
40109.258956875     131384.5 
40510.351546444     128590.5 
40915.455061908       123750 
41324.609612527       118063 
41737.855708653     114634.5 
42155.234265739     110491.5 
42576.786608396       106405 
43002.55447448     102640.5 
43432.580019225     98003.35 
43866.905819417 94407.433333333 
44305.574877612     90527.25 
44748.630626388        87437 
45196.116932652     84426.95 
45648.078101978 80837.833333333 
46104.558882998     76054.95 
46565.604471828     73548.35 
47031.260516546      71761.7 
47501.573121712      68841.3 
47976.588852929     66605.65 
48456.354741458 63939.533333333 
48940.918288873      61397.2 
49430.327471761 58987.666666667 
49924.630746479     56687.45 
50423.877053944      54490.5 
50928.115824483     51503.75 
51437.396982728 50358.933333333 
51951.770952555        48547 
52471.288662081 46720.266666667 
52996.001548702 44692.566666667 
53525.961564189     42992.35 
54061.221179831 41512.366666667 
54601.833391629      39721.3 
55147.851725545      38250.4 
55699.330242801      36989.2 
56256.323545229 35453.066666667 
56818.886780681 33886.533333333 
57387.075648488      32610.8 
57960.946404973      31304.5 
58540.555869022 29670.633333333 
59125.961427713      28668.7 
59717.22104199 27746.066666667 
60314.39325241      26676.4 
60917.537184934      25652.4 
61526.712556783      24677.3 
62141.979682351      23719.5 
62763.399479174 22672.733333333 
63391.033473966 22015.433333333 
64024.943808706 21041.785714286 
64665.193246793      20312.2 
65311.845179261     19584.25 
65964.963631053     18660.55 
66624.613267364      18002.3 
67290.859400038      17222.6 
67963.767994038     16576.15 
68643.405673978      16010.8 
69329.839730718     15468.95 
70023.138128025     14779.95 
70723.369509305     14128.65 
71430.603204399      13662.5 
72144.909236443     13216.35 
72866.358328807      12650.6 
73595.021912095     12099.95 
74330.972131216     11283.85 
75074.281852528     11099.25 
75825.024671053      10776.8 
76583.274917764     10445.75 
77349.107666942    10004.485 
78122.598743611     9620.415 
78903.824731047     9238.435 
79692.862978358     8875.325 
80489.791608141      8529.62 
81294.689524223     8173.885 
82107.636419465      7887.24 
82928.712783659       7588.8 
83757.999911496      7304.25 
84595.579910611       6967.5 
85441.535709717     6646.785 
86295.951066814      6371.43 
87158.910577482     6096.625 
88030.499683257      5956.17 
88910.80468009     5745.645 
89799.912726891 5495.7066666667 
90697.91185416      5258.36 
91604.890972701     5077.615 
92520.939882428 4862.1933333333 
93446.149281253     4617.525 
94380.610774065      4503.95 
95324.416881806      4319.22 
96277.661050624     4143.045 
97240.43766113 3976.4266666667 
98212.842037741      3817.38 
99194.970458119      3696.32 
100186.9201627      3608.39 
199060.83304441      225.285 
399467.9878358      13.8745 
594753.39981818      2.71581 
793700.71765891      0.85353 
997811.18987739     0.347729 
1193529.3359837     0.166912 
1399507.0114645    0.0897252 
