#  WAVELENGTH	        FLUX	
#  (ANGSTROM)	(ERG/CM2/S/A)	
############	############	
        90.9   3.65633E-5 
    92.72709  0.000101993 
95.53681355409  0.000265822 
97.457103506527  0.000475744 
99.415991287008  0.000914925 
101.41425271188   0.00201839 
103.45267919139   0.00357029 
105.53207804313   0.00619383 
107.6532728118    0.0115072 
109.81710359532    0.0246488 
113.14467165136    0.0643451 
117.73879903054     0.166405 
120.10534889105     0.379888 
123.7446610678     0.826675 
126.23192875526       1.3476 
127.49424804281      1.76801 
130.05688242847      2.69282 
131.35745125276      3.90018 
132.67102576529      5.19378 
135.33771338317      8.52448 
139.43858143639      15.1249 
142.24129692326      27.2913 
146.55135046134      50.0336 
150.99200293167      91.6768 
154.02694219059      169.041 
158.69411256591      279.379 
161.88386422848      438.399 
165.13772989948      737.382 
170.14156825316      1233.16 
171.84298393569      1766.78 
175.2970279128      2626.66 
178.82049817385       3821.6 
180.60870315558      4393.67 
186.0813274699      7075.73 
189.82156215205      11460.6 
193.6369755513      15275.7 
197.52907875988      23044.5 
201.49941324296      30890.9 
203.51440737539      41072.5 
209.68109743327      64761.5 
216.03464436659       100924 
218.19499081026       133328 
222.58071012555       167581 
224.8065172268       217506 
229.32512822306     48832600 
233.93456330034    288485000 
238.63664802268    877795000 
245.86757709442   3517490000 
250.80951539401  11472400000 
255.85078665343  16403400000 
258.40929451997  21124200000 
263.60332133982  56031800000 
266.23935455322  67630500000 
271.59076557974  77801500000 
277.04973996789  58790800000 
282.61843974125 100549000000 
288.29907038004 129911000000 
294.09388169468 103143000000 
300.00516871675  46841400000 
306.03527260795  72916400000 
315.30844740325  41330000000 
324.86260866801  50890700000 
334.70627057326  36016500000 
344.8482052779  36642100000 
355.29745074603  79984600000 
362.43892950602 130209000000 
373.42119150899 153545000000 
384.7362270329 131114000000 
392.46942519626 188528000000 
404.36164124913 241943000000 
412.48931023824 240550000000 
420.78034537403 224937000000 
429.23803031605 210512000000 
437.8657147254 245722000000 
446.66681559138 249430000000 
455.64481858477 222513000000 
469.4513122327 229534000000 
478.88728360858 246902000000 
488.51291800911 210348000000 
498.3320276611 253871000000 
503.31534793771 214927000000 
508.34850141708 263164000000 
518.56630629557 247856000000 
528.98948905211 230223000000 
539.62217778206 198197000000 
545.01839955988 173458000000 
555.97326939103 216812000000 
567.14833210579 230317000000 
578.54801358112 224202000000 
584.33349371693 222867000000 
596.07859694064 200818000000 
608.05977673914 179142000000 
614.14037450653 210632000000 
626.48459603412 194421000000 
639.0769364144 208002000000 
645.46770577855 195909000000 
651.92238283633 179758000000 
658.44160666469 195800000000 
671.67628295866 195664000000 
678.39304578824 178343000000 
692.02874600859 187536000000 
698.94903346867 169930000000 
712.99790904139 180959000000 
720.12788813181 180297000000 
734.60245868325 176961000000 
741.94848327009 169385000000 
749.36796810279 164445000000 
764.43026426165 151947000000 
772.07456690427 157943000000 
779.79531257331 146174000000 
787.59326569905 151127000000 
803.4238903396 150099000000 
811.45812924299 147907000000 
819.57271053542 145854000000 
827.76843764078 133520000000 
844.40658323736 139201000000 
852.85064906973 133284000000 
861.37915556043 134867000000 
869.99294711603 132909000000 
878.69287658719 128994000000 
887.47980535306 126659000000 
896.3546034066 122482000000 
914.37133093507  93882700000 
923.51504424442 148803000000 
932.75019468686 185283000000 
942.07769663373 205074000000 
951.49847360007 222921000000 
961.01345833607 233156000000 
970.62359291943 187500000000 
980.32982884862 212815000000 
990.13312713711 193536000000 
1000.0344584085 196798000000 
1010.0348029926 196365000000 
1020.1351510225 175391000000 
1030.3365025327 195957000000 
1040.639867558 195509000000 
1051.0462662336 190784000000 
1061.556728896 181306000000 
1072.1722961849 181202000000 
1082.8940191468 169944000000 
1093.7229593382 172739000000 
1104.6601889316 165860000000 
1115.7067908209 157666000000 
1126.8638587291 158319000000 
1138.1324973164 155571000000 
1149.5138222896 149317000000 
1161.0089605125 143023000000 
1172.6190501176 131356000000 
1184.3452406188 134064000000 
1196.188693025 129204000000 
1208.1505799552 110340000000 
1220.2320857548 122946000000 
1232.4344066123 118360000000 
1244.7587506785 115365500000 
1257.2063381852 113945000000 
1269.7784015671 111910000000 
1282.4761855828 108861000000 
1295.3009474386 104120000000 
1308.253956913 102325000000 
1321.3364964821  99859100000 
1334.5498614469  97177000000 
1347.8953600614  92463800000 
1361.374313662  88764700000 
1374.9880567986  85607400000 
1388.7379373666  82986200000 
1402.6253167403  80894050000 
1416.6515699077  78656800000 
1430.8180856068 77859741176.471 
1445.1262664628 74636269230.769 
1459.5775291275  72956300000 
1474.1733044187  71781100000 
1488.9150374629  69700200000 
1503.8041878376 67999454545.455 
1518.8422297159  66105100000 
1534.0306520131  59892950000 
1549.3709585332  56714700000 
1564.8646681186  58874100000 
1580.5133147997  57122300000 
1596.3184479477  54634200000 
1612.2816324272  53027400000 
1628.4044487515  51781100000 
1644.688493239  50010900000 
1661.1353781714 49353431818.182 
1677.7467319531  48810400000 
1694.5241992726  47449200000 
1711.4694412654  44782050000 
1728.584135678  44362850000 
1745.8699770348  42959100000 
1763.3286768051  41955050000 
1780.9619635732  40546050000 
1798.7715832089  39045400000 
1816.759299041  38005300000 
1834.9268920314  37127950000 
1853.2761609517  35845450000 
1871.8089225613  34541200000 
1890.5270117869  33630550000 
1909.4322819047  32264700000 
1928.5266047238  31448050000 
1947.811870771 30257354545.455 
1967.2899894787 29387617647.059 
1986.9628893735 28458933333.333 
2006.8325182673  27544800000 
2026.9008434499  26569950000 
2047.1698518844  19760600000 
2067.6415504033  20511410000 
2088.3179659073  23776600000 
2109.2011455664  23443400000 
2130.293157022  22731150000 
2151.5960885923  22025500000 
2173.1120494782  21515200000 
2194.843169973 20820533333.333 
2216.7916016727  20257150000 
2238.9595176894  19365900000 
2261.3491128663  19075700000 
2283.962603995 18120333333.333 
2306.8022300349  17672500000 
2329.8702523353  17180600000 
2353.1689548586  16524500000 
2376.7006444072  15628050000 
2400.4676508513  15416350000 
2424.4723273598 14946833333.333 
2448.7170506334  14391600000 
2473.2042211397 13746866666.667 
2497.9362633511 13112613043.478 
2522.9156259846  12965900000 
2548.1447822445  12578750000 
2573.6262300669 12123933333.333 
2599.3624923676 11666533333.333 
2625.3561172913  11297700000 
2651.6096784642 10916133333.333 
2678.1257752488  10564000000 
2704.9070330013 10244366666.667 
2731.9561033313   9766330000 
2759.2756643647   9476250000 
2786.8684210083   9173575000 
2814.7371052184   8897280000 
2842.8844762706 8576043333.3333 
2871.3133210333 8260043333.3333 
2900.0264542436   8013660000 
2929.026718786   7730985000 
2958.3169859739   7447140000 
2987.9001558336   7174890000 
3017.779157392   6908090000 
3047.9569489659   6676390000 
3078.4365184556   6464100000 
3109.2208836401   6242490000 
3140.3130924765   5969800000 
3171.7162234013   5771210000 
3203.4333856353   5540330000 
3235.4677194916   5402080000 
3267.8223966866   5210975000 
3300.5006206534   4997540000 
3333.50562686   4824890000 
3366.8406831286   4682515000 
3400.5090899598   4487740000 
3434.5141808594   4342880000 
3468.859322668   4217060000 
3503.5479158947   4048340000 
3538.5833950537   3884890000 
3573.9692290042   3767850000 
3609.7089212942   3625120000 
3645.8060105072 3145156666.6667 
3682.2640706123   3062755000 
3719.0867113184   3050655000 
3756.2775784316   3066065000 
3793.8403542159   2999385000 
3831.778757758   2981355000 
3870.0965453356   2741810000 
3908.797510789   2832070000 
3947.8854858969   2650495000 
3987.3643407558   2644380000 
4027.2379841634   2533440000 
4067.510364005   2439525000 
4108.1854676451   2305275000 
4149.2673223215   2270230000 
4190.7599955447   2160425000 
4232.6675955002   2100805000 
4274.9942714552   2028255000 
4317.7442141697   1887020000 
4360.9216563114   1890035000 
4404.5308728746   1828915000 
4448.5761816033 1752436666.6667 
4493.0619434193   1681320000 
4537.9925628535   1615475000 
4583.3724884821   1576885000 
4629.2062133669 1508483333.3333 
4675.4982755006   1431040000 
4722.2532582556   1410470000 
4769.4757908381 1355866666.6667 
4817.1705487465   1292760000 
4865.342254234 1230186666.6667 
4913.9956767763   1206425000 
4963.1356335441   1162340000 
5012.7669898795   1119665000 
5062.8946597783 1079156666.6667 
5113.5236063761   1040005000 
5164.6588424398 1002868333.3333 
5216.3054308642    967054000 
5268.4684851729    933044000 
5321.1531700246    894270000 
5374.3647017249    855849000 
5428.1083487421    833784000 
5482.3894322295 799905333.33333 
5537.2133265518 767404666.66667 
5592.5854598173    742261000 
5648.5113144155    714643000 
5704.9964275597    644369000 
5762.0463918353 620482333.33333 
5819.6668557536    602448000 
5877.8635243112 590370333.33333 
5936.6421595543 581397666.66667 
5996.0085811498    567406000 
6055.9686669613    547597000 
6116.5283536309 527344666.66667 
6177.6936371672 508393666.66667 
6239.4705735389    490727000 
6301.8652792743    472242000 
6364.883932067 455275666.66667 
6428.5327713877    438022250 
6492.8180991016    417226000 
6557.7462800926 397373666.66667 
6623.3237428935    391659000 
6689.5569803225    375289250 
6756.4525501257 362032333.33333 
6824.0170756269    346906250 
6892.2572463832 334759333.33333 
6961.179818847    322127750 
7030.7916170355 309824666.66667 
7101.0995332059    297850000 
7172.1105285379 287071333.33333 
7243.8316338233    277088000 
7316.2699501615 267122666.66667 
7389.4326496631    257553250 
7463.3269761598    247143000 
7537.9602459214    236318750 
7613.3398483806 229024666.66667 
7689.4732468644    221088000 
7766.367979333    212532250 
7844.0316591264    204316000 
7922.4719757176    196525250 
8001.6966954748    189094500 
8081.7136624296    182011250 
8162.5307990539    171085000 
8244.1561070444    161664000 
8326.5976681148    155990500 
8409.863644796    150271200 
8493.9622812439    145174750 
8578.9019040564    141042750 
8664.6909230969    136421200 
8751.3378323279    133181500 
8838.8512106512    127808000 
8927.2397227577    123634400 
9016.5121199853    119275750 
9106.6772411851    115488000 
9197.744013597    109074500 
9289.721453733    106594400 
9382.6186682703    102821000 
9476.444854953     97020180 
9571.2093035025     95118675 
9666.9213965375     91721040 
9763.5906105029     88059100 
9861.226516608     84780460 
9959.838781774     81272700 
10059.437169592     77216800 
10160.031541288     75772650 
10261.631856701     72923750 
10364.248175268     70058950 
10467.89065702     67677400 
10572.56956359 64628866.666667 
10678.295259226     61741200 
10785.078211819     59483350 
10892.928993937     56324700 
11001.858283876     55445750 
11111.876866715     53549650 
11222.995635382     51285100 
11335.225591736     49119200 
11448.577847653     47470950 
11563.06362613     45238800 
11678.694262391     43641350 
11795.481205015     42216900 
11913.436017065 40508966.666667 
12032.570377236     38902700 
12152.896081008     37670400 
12274.425041818     36197100 
12397.169292236     34790900 
12521.140985159 33456833.333333 
12646.35239501     32182550 
12772.81591896     30544000 
12900.54407815     29586900 
13029.549518932     28496400 
13159.845014121     27454800 
13291.443464262     26457200 
13424.357898905     25507600 
13558.601477894     24422700 
13694.187492673     23394000 
13831.129367599     22576850 
13969.440661275     21797400 
14109.135067888 20904133.333333 
14250.226418567 20055533.333333 
14392.728682753 19251233.333333 
14536.65596958     18488510 
14682.022529276 17704133.333333 
14828.842754569     17072100 
14977.131182115 16413166.666667 
15126.902493936     15786100 
15278.171518875 15186433.333333 
15430.953234064     14618200 
15585.262766404     14075300 
15741.115394068     13557100 
15898.526548009     13012900 
16057.511813489     12479000 
16218.086931624     12073550 
16380.26780094     11578600 
16544.07047895     11248950 
16709.511183739     10662200 
16876.606295577     10358600 
17045.372358532     10001485 
17215.826082118      9487860 
17387.984342939      9126145 
17561.864186368      8828290 
17737.482828232      8538490 
17914.857656514      8169495 
18094.006233079      7747625 
18274.94629541      7489430 
18457.695758364      7253630 
18642.272715948      6905780 
18828.695443107      6737040 
19016.982397539      6461080 
19207.152221514      6199825 
19399.223743729      5890635 
19593.215981166      5717505 
19789.148140978      5493275 
19987.039622388      5280005 
20186.910018612      5076865 
20388.779118798      4883095 
20592.666909986      4698620 
20798.593579086      4523345 
21006.579514877      4355160 
21216.645310025      4195895 
21428.811763126      4042810 
21643.099880757 3831076.6666667 
21859.530879564      3690775 
22078.12618836      3560620 
22298.907450244      3436115 
22521.896524746      3316960 
22747.115489993      3177440 
22974.586644893      3043775 
23204.332511342      2941370 
23436.375836456 2819496.6666667 
23670.73959482      2703485 
23907.446990769      2615115 
24146.521460676 2509783.3333333 
24387.986675283      2409420 
24631.866542036 2314096.6666667 
24878.185207456      2223525 
25126.967059531 2137273.3333333 
25378.236730126      2055165 
25632.019097427 1976103.3333333 
25888.339288402      1901760 
26147.222681286 1811913.3333333 
26408.694908098 1750276.6666667 
26672.781857179      1681030 
26939.509675751      1625320 
27208.904772509 1555506.6666667 
27480.993820234 1483906.6666667 
27755.803758436      1436875 
28033.361796021      1386820 
28313.695413981      1329490 
28596.832368121 1268573.3333333 
28882.800691802      1223410 
29171.62869872 1174353.3333333 
29463.344985707      1127720 
29757.978435564      1083360 
30055.55821992      1036740 
30356.113802119       998674 
30659.67494014 962758.66666667 
30966.271689541 926324.66666667 
31275.934406437       891596 
31588.693750501 858455.66666667 
31904.580688006     827870.6 
32223.626494886     791816.5 
32545.862759835       763158 
32871.321387434       730566 
33200.034601308       701694 
33532.034947321       677039 
33867.355296794     653565.5 
34206.028849762       623745 
34548.08913826       602442 
34893.570029642     582135.5 
35242.505729939       556307 
35594.930787238     531890.5 
35950.880095111       508802 
36310.388896062       492259 
36673.492785022     476445.5 
37040.227712872     454840.5 
37410.629990001       434828 
37784.736289901       419107 
38162.5836528     401912.5 
38544.209489328     385609.5 
38929.651584221       369981 
39318.948100064       355387 
39712.137581064     341250.5 
40109.258956875     325246.5 
40510.351546444       315382 
40915.455061908       303294 
41324.609612527     291178.5 
41737.855708653       280840 
42155.234265739       270379 
42576.786608396       260392 
43002.55447448     250898.5 
43432.580019225     241116.5 
43866.905819417       230898 
44305.574877612       220848 
44748.630626388       213116 
45196.116932652       205694 
45648.078101978 196881.66666667 
46104.558882998     186624.5 
46565.604471828       181002 
47031.260516546       174542 
47501.573121712       167328 
47976.588852929     161829.5 
48456.354741458 155283.33333333 
48940.918288873     149042.5 
49430.327471761       143130 
49924.630746479       137490 
50423.877053944 132141.66666667 
50928.115824483     126101.5 
51437.396982728 122166.66666667 
51951.770952555     117550.5 
52471.288662081 113146.66666667 
52996.001548702 108123.33333333 
53525.961564189       104140 
54061.221179831       100352 
54601.833391629 96022.733333333 
55147.851725545     92585.95 
55699.330242801      89312.5 
56256.323545229 85566.366666667 
56818.886780681 81993.633333333 
57387.075648488 78642.766666667 
57960.946404973      75447.6 
58540.555869022 71930.333333333 
59125.961427713 69428.266666667 
59717.22104199 66782.166666667 
60314.39325241      64170.1 
60917.537184934      61684.5 
61526.712556783 59317.433333333 
62141.979682351      57058.8 
62763.399479174 54799.066666667 
63391.033473966      52864.8 
64024.943808706 50504.814285714 
64665.193246793      48739.7 
65311.845179261     46977.05 
65964.963631053     44743.15 
66624.613267364      43149.7 
67290.859400038      41521.1 
67963.767994038      39711.4 
68643.405673978      38338.4 
69329.839730718     37029.65 
70023.138128025      35366.8 
70723.369509305     33795.45 
71430.603204399      32671.4 
72144.909236443     31598.75 
72866.358328807      30232.5 
73595.021912095      28935.3 
74330.972131216     27220.25 
75074.281852528     26537.15 
75825.024671053      25720.3 
76583.274917764     24922.95 
77349.107666942     23904.95 
78122.598743611      22938.7 
78903.824731047     22020.85 
79692.862978358     21147.85 
80489.791608141      20317.7 
81294.689524223      19521.2 
82107.636419465     18775.85 
82928.712783659      18059.7 
83757.999911496      17377.2 
84595.579910611 16570.233333333 
85441.535709717     15806.65 
86295.951066814      15211.2 
87158.910577482      14586.9 
88030.499683257     14148.55 
88910.80468009      13644.5 
89799.912726891 13046.533333333 
90697.91185416      12478.7 
91604.890972701     12047.65 
92520.939882428 11535.066666667 
93446.149281253      11019.5 
94380.610774065     10676.75 
95324.416881806 10235.766666667 
96277.661050624      9815.73 
97240.43766113      9418.18 
98212.842037741     9039.295 
99194.970458119      8750.34 
100186.9201627      8540.55 
199060.83304441      524.634 
399467.9878358       31.763 
594753.39981818      6.14635 
793700.71765891      1.91538 
997811.18987739     0.775161 
1193529.3359837     0.370112 
1399507.0114645      0.19811 
