#  WAVELENGTH	        FLUX	
#  (ANGSTROM)	(ERG/CM2/S/A)	
############	############	
        90.9  3.09563E-19 
    92.72709  1.99646E-18 
95.53681355409  1.16574E-17 
97.457103506527  3.29784E-17 
99.415991287008  1.08658E-16 
101.41425271188   4.6052E-16 
103.45267919139  1.30528E-15 
105.53207804313  3.57461E-15 
107.6532728118  1.11136E-14 
109.81710359532  4.49611E-14 
113.14467165136   2.6276E-13 
117.73879903054  1.52046E-12 
120.10534889105  6.99146E-12 
123.7446610678  2.96836E-11 
126.23192875526   7.3742E-11 
127.49424804281  1.21706E-10 
130.05688242847  2.68087E-10 
131.35745125276  5.37165E-10 
132.67102576529  9.17872E-10 
135.33771338317   2.34584E-9 
139.43858143639   6.83467E-9 
142.24129692326   2.09326E-8 
146.55135046134    6.8797E-8 
150.99200293167   2.07721E-7 
154.02694219059   6.64073E-7 
158.69411256591   1.71817E-6 
161.88386422848   3.87224E-6 
165.13772989948    1.0259E-5 
170.14156825316   2.78436E-5 
171.84298393569   5.55857E-5 
175.2970279128  0.000115465 
178.82049817385  0.000233565 
180.60870315558  0.000316083 
186.0813274699  0.000748114 
189.82156215205   0.00186635 
193.6369755513   0.00313793 
197.52907875988   0.00682235 
201.49941324296     0.011993 
203.51440737539     0.020049 
209.68109743327    0.0467997 
216.03464436659     0.107629 
218.19499081026     0.178134 
222.58071012555     0.274951 
224.8065172268     0.454237 
229.32512822306      118.524 
233.93456330034      297.994 
238.63664802268      529.149 
245.86757709442      978.804 
250.80951539401      1672.66 
255.85078665343      2230.46 
258.40929451997      3400.49 
263.60332133982      4665.94 
266.23935455322      6814.79 
271.59076557974      9896.42 
277.04973996789      13841.9 
282.61843974125      23106.6 
288.29907038004        34120 
294.09388169468      48888.7 
300.00516871675        64214 
306.03527260795      97220.6 
315.30844740325       193946 
324.86260866801       309662 
334.70627057326       519702 
344.8482052779       817051 
355.29745074603      1552600 
362.43892950602      2443820 
373.42119150899      3237550 
384.7362270329      4684950 
392.46942519626      6829810 
404.36164124913      9009840 
412.48931023824     11847000 
420.78034537403     14168500 
429.23803031605     17555500 
437.8657147254     22900500 
446.66681559138     28654700 
455.64481858477     34024900 
469.4513122327     42400500 
478.88728360858     51484900 
488.51291800911     62078000 
498.3320276611     75065600 
503.31534793771    258436000 
508.34850141708   1320050000 
518.56630629557   1309820000 
528.98948905211   1360200000 
539.62217778206   1263220000 
545.01839955988   1543290000 
555.97326939103   1709220000 
567.14833210579   1827760000 
578.54801358112   1709280000 
584.33349371693   1920670000 
596.07859694064   1908240000 
608.05977673914   2064780000 
614.14037450653   2236660000 
626.48459603412   2278320000 
639.0769364144   2229570000 
645.46770577855   2391810000 
651.92238283633   2403970000 
658.44160666469   2510970000 
671.67628295866   2528730000 
678.39304578824   2427020000 
692.02874600859   2834770000 
698.94903346867   2747870000 
712.99790904139   3014530000 
720.12788813181   3021760000 
734.60245868325   3072990000 
741.94848327009   3230440000 
749.36796810279   3280390000 
764.43026426165   3375930000 
772.07456690427   3467580000 
779.79531257331   3610820000 
787.59326569905   3639960000 
803.4238903396   3668560000 
811.45812924299   3691790000 
819.57271053542   3848260000 
827.76843764078   3576040000 
844.40658323736   3871640000 
852.85064906973   3906900000 
861.37915556043   4024800000 
869.99294711603   4128050000 
878.69287658719   4246830000 
887.47980535306   4325170000 
896.3546034066   4298780000 
914.37133093507   4524950000 
923.51504424442  15040100000 
932.75019468686  29735500000 
942.07769663373  58760800000 
951.49847360007  71961000000 
961.01345833607  93051400000 
970.62359291943  33118700000 
980.32982884862  90211700000 
990.13312713711  81436500000 
1000.0344584085  87045000000 
1010.0348029926  83999700000 
1020.1351510225  40867100000 
1030.3365025327  75678400000 
1040.639867558  92427800000 
1051.0462662336  88270600000 
1061.556728896  76493500000 
1072.1722961849  80495200000 
1082.8940191468  72259600000 
1093.7229593382  78791200000 
1104.6601889316  73938550000 
1115.7067908209  63161200000 
1126.8638587291  70218000000 
1138.1324973164  64706600000 
1149.5138222896  64842100000 
1161.0089605125  63098200000 
1172.6190501176  46125800000 
1184.3452406188  56952450000 
1196.188693025  49394400000 
1208.1505799552  27071400000 
1220.2320857548  48733700000 
1232.4344066123  53524900000 
1244.7587506785  51682300000 
1257.2063381852  51442300000 
1269.7784015671  51345500000 
1282.4761855828  47904000000 
1295.3009474386  45886200000 
1308.253956913  47696400000 
1321.3364964821  45423400000 
1334.5498614469  43705100000 
1347.8953600614  43128400000 
1361.374313662  41016700000 
1374.9880567986  39739600000 
1388.7379373666  33086300000 
1402.6253167403  34923250000 
1416.6515699077  33834000000 
1430.8180856068 34685235294.118 
1445.1262664628 33583976923.077 
1459.5775291275  32067900000 
1474.1733044187  31440150000 
1488.9150374629  30374100000 
1503.8041878376 28215009090.909 
1518.8422297159  27405600000 
1534.0306520131  23917450000 
1549.3709585332  22653400000 
1564.8646681186  24008750000 
1580.5133147997  24034900000 
1596.3184479477  22836100000 
1612.2816324272  22067900000 
1628.4044487515  22248200000 
1644.688493239  21748250000 
1661.1353781714 21422118181.818 
1677.7467319531  21341500000 
1694.5241992726  20353450000 
1711.4694412654  19097800000 
1728.584135678  18945050000 
1745.8699770348  18530600000 
1763.3286768051  17813900000 
1780.9619635732  17455900000 
1798.7715832089  16897400000 
1816.759299041  16439500000 
1834.9268920314  15601900000 
1853.2761609517  15054300000 
1871.8089225613  14513250000 
1890.5270117869  13591150000 
1909.4322819047  13006750000 
1928.5266047238  13233050000 
1947.811870771 12503654545.455 
1967.2899894787 12685564705.882 
1986.9628893735 12040714285.714 
2006.8325182673  12080850000 
2026.9008434499  11428150000 
2047.1698518844  10315700000 
2067.6415504033  10275460000 
2088.3179659073  10232150000 
2109.2011455664  10414150000 
2130.293157022  10060870000 
2151.5960885923   9837705000 
2173.1120494782   9556545000 
2194.843169973   9273920000 
2216.7916016727   8909685000 
2238.9595176894   8644935000 
2261.3491128663   8441920000 
2283.962603995 8000733333.3333 
2306.8022300349   7816305000 
2329.8702523353   7601990000 
2353.1689548586 7354576666.6667 
2376.7006444072   7053445000 
2400.4676508513   6892180000 
2424.4723273598 6655003333.3333 
2448.7170506334   6445525000 
2473.2042211397   6054130000 
2497.9362633511 5908384347.8261 
2522.9156259846 5791420370.3704 
2548.1447822445   5608730000 
2573.6262300669   5446060000 
2599.3624923676 5260096666.6667 
2625.3561172913   5090985000 
2651.6096784642   4905950000 
2678.1257752488   4744755000 
2704.9070330013   4593020000 
2731.9561033313   4435310000 
2759.2756643647 4279766666.6667 
2786.8684210083   4116885000 
2814.7371052184 4008626666.6667 
2842.8844762706 3893966666.6667 
2871.3133210333   3756700000 
2900.0264542436   3638640000 
2929.026718786   3505980000 
2958.3169859739   3398300000 
2987.9001558336   3271460000 
3017.779157392   3166890000 
3047.9569489659   3069755000 
3078.4365184556   2944250000 
3109.2208836401   2868005000 
3140.3130924765   2742590000 
3171.7162234013   2635380000 
3203.4333856353   2569030000 
3235.4677194916   2491720000 
3267.8223966866   2411465000 
3300.5006206534   2313345000 
3333.50562686   2238960000 
3366.8406831286   2174515000 
3400.5090899598   2085840000 
3434.5141808594   2012800000 
3468.859322668   1956910000 
3503.5479158947   1884145000 
3538.5833950537   1818205000 
3573.9692290042   1753970000 
3609.7089212942   1704922000 
3645.8060105072   1636320000 
3682.2640706123   1572810000 
3719.0867113184   1490135000 
3756.2775784316   1444635000 
3793.8403542159   1418910000 
3831.778757758   1536915000 
3870.0965453356   1246270000 
3908.797510789   1511695000 
3947.8854858969   1308925000 
3987.3643407558   1406200000 
4027.2379841634   1348280000 
4067.510364005   1264725000 
4108.1854676451   1159865000 
4149.2673223215   1231150000 
4190.7599955447   1187785000 
4232.6675955002   1136005000 
4274.9942714552   1091085000 
4317.7442141697    927392500 
4360.9216563114   1005636500 
4404.5308728746    993834500 
4448.5761816033 941007666.66667 
4493.0619434193    920943000 
4537.9925628535    889782500 
4583.3724884821    860109000 
4629.2062133669 821225666.66667 
4675.4982755006    786865000 
4722.2532582556    770510000 
4769.4757908381 742670666.66667 
4817.1705487465    680903500 
4865.342254234    645433000 
4913.9956767763    651697500 
4963.1356335441 635047333.33333 
5012.7669898795    613075500 
5062.8946597783 592902666.66667 
5113.5236063761    570664000 
5164.6588424398 551221333.33333 
5216.3054308642    531878000 
5268.4684851729    513273000 
5321.1531700246 492101333.33333 
5374.3647017249    474916500 
5428.1083487421 459083333.33333 
5482.3894322295    440631000 
5537.2133265518    423182000 
5592.5854598173    409230500 
5648.5113144155 394954333.33333 
5704.9964275597    379969000 
5762.0463918353 365747666.66667 
5819.6668557536 347857333.33333 
5877.8635243112 337683333.33333 
5936.6421595543 325731333.33333 
5996.0085811498 313793666.66667 
6055.9686669613 302436333.33333 
6116.5283536309 291318333.33333 
6177.6936371672 280990333.33333 
6239.4705735389    270939000 
6301.8652792743 261370333.33333 
6364.883932067 252246333.33333 
6428.5327713877    241964750 
6492.8180991016    228043000 
6557.7462800926 212137333.33333 
6623.3237428935 216057333.33333 
6689.5569803225    207926000 
6756.4525501257 200403666.66667 
6824.0170756269    192871500 
6892.2572463832    185565000 
6961.179818847    178678500 
7030.7916170355 171151333.33333 
7101.0995332059    165720250 
7172.1105285379 159369333.33333 
7243.8316338233    153605250 
7316.2699501615    148426000 
7389.4326496631    143183500 
7463.3269761598    137399000 
7537.9602459214    132003000 
7613.3398483806 127465666.66667 
7689.4732468644    123116000 
7766.367979333    118354000 
7844.0316591264    113894000 
7922.4719757176    109590000 
8001.6966954748    105446750 
8081.7136624296    101397500 
8162.5307990539     97580500 
8244.1561070444     93983000 
8326.5976681148     90579775 
8409.863644796     86914500 
8493.9622812439     83475950 
8578.9019040564     80168100 
8664.6909230969     76572020 
8751.3378323279     75048775 
8838.8512106512     70441950 
8927.2397227577     69107720 
9016.5121199853     66689050 
9106.6772411851     65939760 
9197.744013597     59497125 
9289.721453733     61332860 
9382.6186682703     58940200 
9476.444854953     53331460 
9571.2093035025     54242200 
9666.9213965375     52708620 
9763.5906105029     50704620 
9861.226516608     48699660 
9959.838781774 45745786.666667 
10059.437169592     43571550 
10160.031541288     43584400 
10261.631856701     41884900 
10364.248175268     40434950 
10467.89065702     38957600 
10572.56956359 37189566.666667 
10678.295259226     35557800 
10785.078211819     33988050 
10892.928993937     31018650 
11001.858283876     31782950 
11111.876866715     30849250 
11222.995635382 29534233.333333 
11335.225591736     28297750 
11448.577847653     27355450 
11563.06362613 26224633.333333 
11678.694262391     25158400 
11795.481205015     24341300 
11913.436017065 23267666.666667 
12032.570377236     22439400 
12152.896081008     21730700 
12274.425041818 20885133.333333 
12397.169292236     20076300 
12521.140985159 19294433.333333 
12646.35239501     18552450 
12772.81591896 17108266.666667 
12900.54407815     17026400 
13029.549518932     16460450 
13159.845014121 15861833.333333 
13291.443464262     15286650 
13424.357898905 14736833.333333 
13558.601477894     14115800 
13694.187492673 13524966.666667 
13831.129367599     13053950 
13969.440661275 12606033.333333 
14109.135067888 12092533.333333 
14250.226418567 11604166.666667 
14392.728682753 11140566.666667 
14536.65596958 10697673.333333 
14682.022529276     10279800 
14828.842754569      9882780 
14977.131182115 9497766.6666667 
15126.902493936      9143700 
15278.171518875      8798060 
15430.953234064      8466150 
15585.262766404      8147710 
15741.115394068      7842150 
15898.526548009      7533350 
16057.511813489      7202330 
16218.086931624      6994085 
16380.26780094      6656050 
16544.07047895      6551530 
16709.511183739      6120475 
16876.606295577      6028950 
17045.372358532      5821745 
17215.826082118      5448385 
17387.984342939      5307045 
17561.864186368      5158110 
17737.482828232      4988520 
17914.857656514      4766805 
18094.006233079      4428685 
18274.94629541      4375905 
18457.695758364      4236520 
18642.272715948      3975655 
18828.695443107      3931085 
19016.982397539      3768570 
19207.152221514      3613740 
19399.223743729      3366710 
19593.215981166      3344155 
19789.148140978      3213535 
19987.039622388      3089105 
20186.910018612      2970615 
20388.779118798      2854765 
20592.666909986      2750130 
20798.593579086      2647550 
21006.579514877      2544685 
21216.645310025      2456325 
21428.811763126      2359485 
21643.099880757 2207526.6666667 
21859.530879564      2161415 
22078.12618836      2085225 
22298.907450244      2012635 
22521.896524746      1943020 
22747.115489993 1860286.6666667 
22974.586644893      1781585 
23204.332511342      1722055 
23436.375836456 1650993.3333333 
23670.73959482      1583350 
23907.446990769      1531720 
24146.521460676 1470276.6666667 
24387.986675283      1411625 
24631.866542036      1355190 
24878.185207456      1302740 
25126.967059531      1252150 
25378.236730126      1204470 
25632.019097427      1157980 
25888.339288402      1113370 
26147.222681286 1045276.6666667 
26408.694908098 1025136.6666667 
26672.781857179     982223.5 
26939.509675751 955583.33333333 
27208.904772509 913509.66666667 
27480.993820234 866316.33333333 
27755.803758436     845329.5 
28033.361796021       815940 
28313.695413981       781543 
28596.832368121       738272 
28882.800691802 719762.66666667 
29171.62869872 691172.66666667 
29463.344985707 663799.66666667 
29757.978435564 637756.66666667 
30055.55821992 605515.66666667 
30356.113802119 584045.66666667 
30659.67494014       566859 
30966.271689541 545483.33333333 
31275.934406437 525081.66666667 
31588.693750501       505613 
31904.580688006     487635.4 
32223.626494886       466441 
32545.862759835       449101 
32871.321387434     424888.5 
33200.034601308       412801 
33532.034947321       398562 
33867.355296794     384819.5 
34206.028849762       367405 
34548.08913826       355521 
34893.570029642     343551.5 
35242.505729939       328346 
35594.930787238       313965 
35950.880095111       300365 
36310.388896062       290610 
36673.492785022       281053 
37040.227712872       266305 
37410.629990001     254688.5 
37784.736289901     247307.5 
38162.5836528     237247.5 
38544.209489328       227701 
38929.651584221     218282.5 
39318.948100064       209995 
39712.137581064       201362 
40109.258956875     190215.5 
40510.351546444       186166 
40915.455061908       179232 
41324.609612527       171632 
41737.855708653       165870 
42155.234265739     159861.5 
42576.786608396     153911.5 
43002.55447448     148399.5 
43432.580019225     142078.5 
43866.905819417 136367.66666667 
44305.574877612       130714 
44748.630626388     126188.5 
45196.116932652       121807 
45648.078101978       116563 
46104.558882998     109328.5 
46565.604471828     106171.5 
47031.260516546 103355.33333333 
47501.573121712      99154.4 
47976.588852929     95908.45 
48456.354741458 92040.666666667 
48940.918288873     88354.35 
49430.327471761 84861.666666667 
49924.630746479      81528.7 
50423.877053944      78337.7 
50928.115824483     74119.65 
51437.396982728 72333.233333333 
51951.770952555     69743.25 
52471.288662081      67139.2 
52996.001548702 64168.866666667 
53525.961564189     61813.45 
54061.221179831 59573.366666667 
54601.833391629 57011.533333333 
55147.851725545      54978.5 
55699.330242801      53041.6 
56256.323545229      50824.9 
56818.886780681 48686.866666667 
57387.075648488 46727.466666667 
57960.946404973 44840.566666667 
58540.555869022 42461.966666667 
59125.961427713 41127.133333333 
59717.22104199 39709.133333333 
60314.39325241 38169.866666667 
60917.537184934      36697.2 
61526.712556783 35294.266666667 
62141.979682351 33923.433333333 
62763.399479174      32548.6 
63391.033473966      31469.5 
64024.943808706 30070.785714286 
64665.193246793      29023.8 
65311.845179261        27978 
65964.963631053      26653.3 
66624.613267364      25708.1 
67290.859400038     24658.95 
67963.767994038     23659.35 
68643.405673978      22852.3 
69329.839730718      22075.1 
70023.138128025      21087.8 
70723.369509305     20154.65 
71430.603204399      19486.7 
72144.909236443      18849.5 
72866.358328807     18037.55 
73595.021912095     17243.85 
74330.972131216     16080.75 
75074.281852528      15804.1 
75825.024671053      15356.1 
76583.274917764     14882.15 
77349.107666942      14277.2 
78122.598743611      13702.6 
78903.824731047      13156.6 
79692.862978358      12637.2 
80489.791608141      12143.2 
81294.689524223      11665.5 
82107.636419465     11225.95 
82928.712783659     10799.35 
83757.999911496     10393.05 
84595.579910611 9912.4433333333 
85441.535709717      9457.58 
86295.951066814      9087.25 
87158.910577482      8682.21 
88030.499683257     8467.925 
88910.80468009     8169.465 
89799.912726891      7812.96 
90697.91185416     7474.455 
91604.890972701      7217.28 
92520.939882428 6910.7366666667 
93446.149281253     6591.675 
94380.610774065     6399.805 
95324.416881806       6136.6 
96277.661050624      5885.99 
97240.43766113      5648.67 
98212.842037741      5422.59 
99194.970458119      5249.98 
100186.9201627      5124.86 
199060.83304441      319.072 
399467.9878358       19.537 
594753.39981818      3.80185 
793700.71765891      1.18941 
997811.18987739      0.48278 
1193529.3359837     0.231121 
1399507.0114645        0.124 
