#  WAVELENGTH	        FLUX	
#  (ANGSTROM)	(ERG/CM2/S/A)	
############	############	
508.34850141708  7.70766E-25 
518.56630629557  2.38215E-24 
528.98948905211  9.33806E-24 
539.62217778206  3.41952E-23 
545.01839955988  1.20464E-22 
555.97326939103  4.02414E-22 
567.14833210579  1.28499E-21 
578.54801358112  3.89017E-21 
584.33349371693  1.15541E-20 
596.07859694064  3.26699E-20 
608.05977673914   8.9083E-20 
614.14037450653  2.34584E-19 
626.48459603412  5.97747E-19 
639.0769364144  1.47694E-18 
645.46770577855  3.54154E-18 
651.92238283633  6.98418E-18 
658.44160666469  1.24684E-17 
671.67628295866  2.79093E-17 
678.39304578824  6.09103E-17 
692.02874600859  1.29727E-16 
698.94903346867  2.69724E-16 
712.99790904139  5.89092E-16 
720.12788813181   1.1712E-15 
734.60245868325   2.1367E-15 
741.94848327009  4.09178E-15 
749.36796810279  7.69025E-15 
764.43026426165  1.41982E-14 
772.07456690427  2.57572E-14 
779.79531257331  4.59693E-14 
787.59326569905  8.05231E-14 
803.4238903396  1.39507E-13 
811.45812924299  2.37895E-13 
819.57271053542  3.99752E-13 
827.76843764078  6.62712E-13 
844.40658323736   1.0842E-12 
852.85064906973   1.7514E-12 
861.37915556043  2.79457E-12 
869.99294711603  4.40482E-12 
878.69287658719   6.8701E-12 
887.47980535306  1.05947E-11 
896.3546034066  1.61621E-11 
914.37133093507   6.15387E-8 
923.51504424442   2.62612E-7 
932.75019468686   3.69015E-7 
942.07769663373   5.54448E-7 
951.49847360007   8.81741E-7 
961.01345833607   1.36007E-6 
970.62359291943   1.78869E-6 
980.32982884862   2.78856E-6 
990.13312713711    4.0275E-6 
1000.0344584085   5.85075E-6 
1010.0348029926   7.78162E-6 
1020.1351510225   9.84366E-6 
1030.3365025327   1.64576E-5 
1040.639867558   2.37669E-5 
1051.0462662336   2.94141E-5 
1061.556728896   4.31096E-5 
1072.1722961849   5.86307E-5 
1082.8940191468   8.14344E-5 
1093.7229593382  0.000101033 
1104.6601889316  0.000196031 
1115.7067908209  0.000330287 
1126.8638587291  0.000484312 
1138.1324973164  0.000638618 
1149.5138222896  0.000791572 
1161.0089605125   0.00102197 
1172.6190501176   0.00133597 
1184.3452406188  0.001583805 
1196.188693025   0.00157256 
1208.1505799552   0.00100002 
1220.2320857548   0.00233789 
1232.4344066123   0.00419605 
1244.7587506785  0.006524175 
1257.2063381852   0.00871608 
1269.7784015671    0.0106216 
1282.4761855828   0.01410535 
1295.3009474386    0.0181129 
1308.253956913    0.0225137 
1321.3364964821    0.0253424 
1334.5498614469   0.03296805 
1347.8953600614    0.0437481 
1361.374313662    0.0500731 
1374.9880567986   0.06332605 
1388.7379373666    0.0798983 
1402.6253167403   0.10597175 
1416.6515699077     0.134982 
1430.8180856068 0.17293835294118 
1445.1262664628 0.21089453846154 
1459.5775291275     0.267545 
1474.1733044187    0.3201565 
1488.9150374629     0.428556 
1503.8041878376 0.52665959090909 
1518.8422297159     0.753321 
1534.0306520131     2.751825 
1549.3709585332      4.90772 
1564.8646681186     7.091875 
1580.5133147997     12.47775 
1596.3184479477      15.0442 
1612.2816324272      18.6947 
1628.4044487515      24.9089 
1644.688493239       31.548 
1661.1353781714 43.503545454545 
1677.7467319531      98.9321 
1694.5241992726      160.087 
1711.4694412654      193.456 
1728.584135678      311.334 
1745.8699770348        475.3 
1763.3286768051     464.8565 
1780.9619635732      695.689 
1798.7715832089      829.629 
1816.759299041      991.531 
1834.9268920314     962.1975 
1853.2761609517     1292.385 
1871.8089225613      1614.79 
1890.5270117869      2150.77 
1909.4322819047     2495.835 
1928.5266047238     2480.485 
1947.811870771 3934.3218181818 
1967.2899894787 4375.5029411765 
1986.9628893735 4821.9123809524 
2006.8325182673     4965.835 
2026.9008434499     6701.605 
2047.1698518844      7564.18 
2067.6415504033    9076.5605 
2088.3179659073        27258 
2109.2011455664     47062.75 
2130.293157022     59801.85 
2151.5960885923      56999.7 
2173.1120494782     67319.85 
2194.843169973 70880.833333333 
2216.7916016727    112156.05 
2238.9595176894     106378.2 
2261.3491128663      63068.7 
2283.962603995     107879.8 
2306.8022300349      97333.3 
2329.8702523353      66702.5 
2353.1689548586      83775.4 
2376.7006444072        51962 
2400.4676508513     67819.95 
2424.4723273598 174109.33333333 
2448.7170506334     191566.5 
2473.2042211397 80893.366666667 
2497.9362633511 79299.408695652 
2522.9156259846 64512.314814815 
2548.1447822445     213274.5 
2573.6262300669 271847.66666667 
2599.3624923676 193936.33333333 
2625.3561172913       645524 
2651.6096784642 855309.66666667 
2678.1257752488     772890.5 
2704.9070330013 511894.33333333 
2731.9561033313 346563.66666667 
2759.2756643647 428786.66666667 
2786.8684210083     116632.5 
2814.7371052184       476576 
2842.8844762706 199574.66666667 
2871.3133210333       793802 
2900.0264542436      1450540 
2929.026718786      1225905 
2958.3169859739      1146690 
2987.9001558336      1115210 
3017.779157392      1273000 
3047.9569489659      1424870 
3078.4365184556      1290880 
3109.2208836401      1568600 
3140.3130924765      1527925 
3171.7162234013      1439420 
3203.4333856353      1458330 
3235.4677194916      1995020 
3267.8223966866      2417425 
3300.5006206534      2129360 
3333.50562686      2036950 
3366.8406831286      1496645 
3400.5090899598      1842405 
3434.5141808594      1933680 
3468.859322668      2245210 
3503.5479158947      2474095 
3538.5833950537      2372875 
3573.9692290042      1903080 
3609.7089212942      2397156 
3645.8060105072 2959133.3333333 
3682.2640706123      2822890 
3719.0867113184      1923505 
3756.2775784316      2849275 
3793.8403542159      2058255 
3831.778757758      2024615 
3870.0965453356      2437780 
3908.797510789      2225785 
3947.8854858969      2344805 
3987.3643407558      4038080 
4027.2379841634      3971230 
4067.510364005      4089545 
4108.1854676451      4299565 
4149.2673223215 4098516.6666667 
4190.7599955447      3918200 
4232.6675955002      3677510 
4274.9942714552      2910850 
4317.7442141697      4081030 
4360.9216563114      4043770 
4404.5308728746      4517915 
4448.5761816033 4958586.6666667 
4493.0619434193      5345570 
4537.9925628535      5460465 
4583.3724884821      5415300 
4629.2062133669      5529570 
4675.4982755006      5493335 
4722.2532582556      5606315 
4769.4757908381      5619740 
4817.1705487465      5547955 
4865.342254234 5290253.3333333 
4913.9956767763      5389160 
4963.1356335441 5284303.3333333 
5012.7669898795      5278955 
5062.8946597783 5331626.6666667 
5113.5236063761      5105150 
5164.6588424398      4613020 
5216.3054308642      5337235 
5268.4684851729 5280283.3333333 
5321.1531700246      5303390 
5374.3647017249      5269935 
5428.1083487421      5344540 
5482.3894322295 5380496.6666667 
5537.2133265518 5324913.3333333 
5592.5854598173      5363405 
5648.5113144155 5354473.3333333 
5704.9964275597 5361266.6666667 
5762.0463918353 5350263.3333333 
5819.6668557536 5348166.6666667 
5877.8635243112      5116810 
5936.6421595543      5256640 
5996.0085811498 5191976.6666667 
6055.9686669613 5136853.3333333 
6116.5283536309 4918126.6666667 
6177.6936371672 5006863.3333333 
6239.4705735389 4930156.6666667 
6301.8652792743 4891656.6666667 
6364.883932067 4861466.6666667 
6428.5327713877      4764490 
6492.8180991016 4770046.6666667 
6557.7462800926      4605690 
6623.3237428935 4690183.3333333 
6689.5569803225      4649160 
6756.4525501257 4588733.3333333 
6824.0170756269    4530747.5 
6892.2572463832 4474423.3333333 
6961.179818847      4403250 
7030.7916170355 4354903.3333333 
7101.0995332059    4273272.5 
7172.1105285379      4187350 
7243.8316338233      4166570 
7316.2699501615 4125553.3333333 
7389.4326496631      4030830 
7463.3269761598    4010472.5 
7537.9602459214    3960327.5 
7613.3398483806 3890946.6666667 
7689.4732468644    3842342.5 
7766.367979333      3810325 
7844.0316591264      3747430 
7922.4719757176    3662017.5 
8001.6966954748    3616172.5 
8081.7136624296      3561505 
8162.5307990539      3474330 
8244.1561070444      3457560 
8326.5976681148    3371667.5 
8409.863644796      3324392 
8493.9622812439    3125317.5 
8578.9019040564      3223585 
8664.6909230969      3083908 
8751.3378323279    3105182.5 
8838.8512106512      3078830 
8927.2397227577      3012434 
9016.5121199853    2973962.5 
9106.6772411851      2917984 
9197.744013597      2830390 
9289.721453733      2815088 
9382.6186682703      2742012 
9476.444854953      2706256 
9571.2093035025      2664495 
9666.9213965375      2620422 
9763.5906105029      2579542 
9861.226516608      2537994 
9959.838781774      2501960 
10059.437169592      2448015 
10160.031541288      2402965 
10261.631856701      2363065 
10364.248175268      2320765 
10467.89065702      2280485 
10572.56956359      2216770 
10678.295259226      2167645 
10785.078211819      2108575 
10892.928993937      2063305 
11001.858283876      2037895 
11111.876866715      2005835 
11222.995635382      1965440 
11335.225591736      1918230 
11448.577847653      1906885 
11563.06362613      1854400 
11678.694262391      1826395 
11795.481205015      1779210 
11913.436017065 1748043.3333333 
12032.570377236      1716455 
12152.896081008      1708050 
12274.425041818 1671223.3333333 
12397.169292236      1640010 
12521.140985159 1609216.6666667 
12646.35239501      1577840 
12772.81591896      1536000 
12900.54407815 1513593.3333333 
13029.549518932      1483170 
13159.845014121      1454810 
13291.443464262      1432010 
13424.357898905 1412896.6666667 
13558.601477894 1376553.3333333 
13694.187492673 1353676.6666667 
13831.129367599      1330255 
13969.440661275 1306046.6666667 
14109.135067888 1272063.3333333 
14250.226418567 1246486.6666667 
14392.728682753 1219676.6666667 
14536.65596958      1201309 
14682.022529276 1174103.3333333 
14828.842754569 1150213.3333333 
14977.131182115 1116723.3333333 
15126.902493936      1115780 
15278.171518875 1097193.3333333 
15430.953234064      1075160 
15585.262766404      1051790 
15741.115394068      1009192 
15898.526548009 1003956.8571429 
16057.511813489       977233 
16218.086931624       959733 
16380.26780094       927087 
16544.07047895     912112.5 
16709.511183739     864679.5 
16876.606295577       853137 
17045.372358532     819635.5 
17215.826082118     779899.5 
17387.984342939     758205.5 
17561.864186368       737807 
17737.482828232       717360 
17914.857656514     690140.5 
18094.006233079     655508.5 
18274.94629541     634867.5 
18457.695758364       619242 
18642.272715948     589041.5 
18828.695443107     574099.5 
19016.982397539       557950 
19207.152221514       536144 
19399.223743729       509866 
19593.215981166     497153.5 
19789.148140978       480669 
19987.039622388       467219 
20186.910018612     448012.5 
20388.779118798       435206 
20592.666909986       418164 
20798.593579086     403979.5 
21006.579514877     391744.5 
21216.645310025       378620 
21428.811763126     366647.5 
21643.099880757 347211.66666667 
21859.530879564       335841 
22078.12618836       326120 
22298.907450244     315375.5 
22521.896524746       304907 
22747.115489993       291616 
22974.586644893       280443 
23204.332511342       267732 
23436.375836456 258667.33333333 
23670.73959482     247465.5 
23907.446990769       242240 
24146.521460676       231634 
24387.986675283       222271 
24631.866542036 214849.66666667 
24878.185207456     208667.5 
25126.967059531       200761 
25378.236730126     193424.5 
25632.019097427 186896.33333333 
25888.339288402       181213 
26147.222681286 173319.33333333 
26408.694908098 166840.66666667 
26672.781857179       162462 
26939.509675751 157117.33333333 
27208.904772509 150981.33333333 
27480.993820234       144772 
27755.803758436       140295 
28033.361796021 135771.33333333 
28313.695413981 130593.33333333 
28596.832368121 125354.66666667 
28882.800691802 120875.66666667 
29171.62869872       116080 
29463.344985707 111924.66666667 
29757.978435564 107747.66666667 
30055.55821992 103651.66666667 
30356.113802119 99905.333333333 
30659.67494014        96367 
30966.271689541 92792.766666667 
31275.934406437 89548.233333333 
31588.693750501 86462.266666667 
31904.580688006     83600.28 
32223.626494886     80094.35 
32545.862759835      77372.5 
32871.321387434     74463.95 
33200.034601308      71264.4 
33532.034947321      69014.3 
33867.355296794        66513 
34206.028849762      63848.6 
34548.08913826      61795.9 
34893.570029642      59825.1 
35242.505729939        57249 
35594.930787238      54795.5 
35950.880095111      52639.7 
36310.388896062      50880.2 
36673.492785022      49216.6 
37040.227712872        47235 
37410.629990001     45283.35 
37784.736289901     43649.65 
38162.5836528        42000 
38544.209489328      40322.7 
38929.651584221      38823.6 
39318.948100064      37313.8 
39712.137581064      35822.5 
40109.258956875      34462.9 
40510.351546444     33263.65 
40915.455061908     32080.35 
41324.609612527     30896.15 
41737.855708653     29697.85 
42155.234265739     28737.55 
42576.786608396      27484.1 
43002.55447448      26099.6 
43432.580019225      24758.6 
43866.905819417      23495.8 
44305.574877612     22289.35 
44748.630626388      21592.6 
45196.116932652     20660.25 
45648.078101978 19884.466666667 
46104.558882998      19110.4 
46565.604471828     18598.45 
47031.260516546 17941.633333333 
47501.573121712     17261.15 
47976.588852929     16741.25 
48456.354741458 16131.366666667 
48940.918288873     15533.65 
49430.327471761 14959.266666667 
49924.630746479      14403.6 
50423.877053944 13884.733333333 
50928.115824483      13381.5 
51437.396982728      12938.7 
51951.770952555     12457.35 
52471.288662081 12053.866666667 
52996.001548702 11551.566666667 
53525.961564189      11171.7 
54061.221179831 10780.933333333 
54601.833391629      10352.2 
55147.851725545     10023.43 
55699.330242801 9697.0966666667 
56256.323545229 9323.1766666667 
56818.886780681 8960.6766666667 
57387.075648488 8626.1766666667 
57960.946404973 8297.7066666667 
58540.555869022 7978.8266666667 
59125.961427713      7686.29 
59717.22104199 7407.0833333333 
60314.39325241 7126.2566666667 
60917.537184934      6863.83 
61526.712556783 6624.2533333333 
62141.979682351 6373.8466666667 
62763.399479174      6152.17 
63391.033473966      5933.08 
64024.943808706 5679.4128571429 
64665.193246793       5485.9 
65311.845179261     5300.465 
65964.963631053      5056.96 
66624.613267364      4882.99 
67290.859400038      4716.17 
67963.767994038     4506.465 
68643.405673978      4355.06 
69329.839730718       4210.9 
70023.138128025      4026.45 
70723.369509305     3854.385 
71430.603204399      3729.72 
72144.909236443      3610.55 
72866.358328807     3458.915 
73595.021912095     3315.135 
74330.972131216      3175.22 
75074.281852528      3049.13 
75825.024671053      2956.13 
76583.274917764      2866.79 
77349.107666942     2753.235 
78122.598743611     2644.895 
78903.824731047      2541.76 
79692.862978358     2443.465 
80489.791608141     2349.785 
81294.689524223      2260.51 
82107.636419465      2176.35 
82928.712783659     2095.105 
83757.999911496      2018.06 
84595.579910611 1926.8466666667 
85441.535709717      1840.22 
86295.951066814     1774.675 
87158.910577482       1711.8 
88030.499683257      1651.38 
88910.80468009      1594.07 
89799.912726891 1526.0333333333 
90697.91185416      1460.92 
91604.890972701     1412.025 
92520.939882428      1353.38 
93446.149281253     1297.555 
94380.610774065     1254.975 
95324.416881806 1204.3566666667 
96277.661050624     1155.885 
97240.43766113 1109.9433333333 
98212.842037741     1066.665 
99194.970458119     1033.265 
100186.9201627      1009.44 
199060.83304441      65.5613 
399467.9878358      4.13531 
594753.39981818      0.81513 
793700.71765891     0.256789 
997811.18987739     0.104675 
1193529.3359837    0.0502386 
1399507.0114645    0.0269939 
