#  WAVELENGTH	        FLUX	
#  (ANGSTROM)	(ERG/CM2/S/A)	
############	############	
        90.9  1.83491E-13 
    92.72709  8.47426E-13 
95.53681355409  3.61502E-12 
97.457103506527  8.51593E-12 
99.415991287008  2.27462E-11 
101.41425271188  7.48246E-11 
103.45267919139  1.76648E-10 
105.53207804313  4.05367E-10 
107.6532728118   1.03227E-9 
109.81710359532   3.26156E-9 
113.14467165136   1.39103E-8 
117.73879903054   5.86127E-8 
120.10534889105   2.03714E-7 
123.7446610678   6.60554E-7 
126.23192875526   1.38186E-6 
127.49424804281   2.07311E-6 
130.05688242847   3.92386E-6 
131.35745125276    6.8728E-6 
132.67102576529   1.05781E-5 
135.33771338317   2.24812E-5 
139.43858143639   5.29685E-5 
142.24129692326  0.000129536 
146.55135046134  0.000333996 
150.99200293167  0.000803624 
154.02694219059   0.00201995 
158.69411256591   0.00429087 
161.88386422848   0.00816509 
165.13772989948    0.0176608 
170.14156825316    0.0388771 
171.84298393569    0.0671541 
175.2970279128     0.119822 
178.82049817385     0.209155 
180.60870315558     0.266069 
186.0813274699     0.526448 
189.82156215205       1.0871 
193.6369755513       1.6419 
197.52907875988      3.04628 
201.49941324296      4.77249 
203.51440737539      7.18821 
209.68109743327      14.1475 
216.03464436659      27.5199 
218.19499081026      41.2991 
222.58071012555      58.5441 
224.8065172268      87.2939 
229.32512822306      48210.2 
233.93456330034       161285 
238.63664802268       258204 
245.86757709442       407079 
250.80951539401       619983 
255.85078665343       735280 
258.40929451997      1224320 
263.60332133982      1926520 
266.23935455322      2697700 
271.59076557974      3418860 
277.04973996789      3947190 
282.61843974125      6991310 
288.29907038004      9233700 
294.09388169468     11100800 
300.00516871675     15269900 
306.03527260795     30910400 
315.30844740325     64029100 
324.86260866801     81229700 
334.70627057326    123043000 
344.8482052779    167355000 
355.29745074603    245159000 
362.43892950602    362116000 
373.42119150899    405193000 
384.7362270329    498843000 
392.46942519626    638843000 
404.36164124913    739612000 
412.48931023824    859247000 
420.78034537403    926383000 
429.23803031605   1017210000 
437.8657147254   1201040000 
446.66681559138   1347090000 
455.64481858477   1436330000 
469.4513122327   1623980000 
478.88728360858   1828220000 
488.51291800911   1963990000 
498.3320276611   2250440000 
503.31534793771   4705510000 
508.34850141708  20871200000 
518.56630629557  19519200000 
528.98948905211  18320200000 
539.62217778206  16403800000 
545.01839955988  18375700000 
555.97326939103  21199500000 
567.14833210579  21689000000 
578.54801358112  20067300000 
584.33349371693  20937100000 
596.07859694064  18956900000 
608.05977673914  20421000000 
614.14037450653  22598900000 
626.48459603412  22082700000 
639.0769364144  21902100000 
645.46770577855  22007300000 
651.92238283633  20425200000 
658.44160666469  21674800000 
671.67628295866  22419900000 
678.39304578824  19899300000 
692.02874600859  22520800000 
698.94903346867  20614500000 
712.99790904139  23090800000 
720.12788813181  22672000000 
734.60245868325  22857300000 
741.94848327009  22331300000 
749.36796810279  22138200000 
764.43026426165  22089800000 
772.07456690427  22200800000 
779.79531257331  22597400000 
787.59326569905  22401500000 
803.4238903396  21961100000 
811.45812924299  21948500000 
819.57271053542  22330100000 
827.76843764078  20218000000 
844.40658323736  21755700000 
852.85064906973  21577000000 
861.37915556043  21877000000 
869.99294711603  21824100000 
878.69287658719  21821500000 
887.47980535306  21816300000 
896.3546034066  21331300000 
914.37133093507  20536000000 
923.51504424442  45636800000 
932.75019468686  70879300000 
942.07769663373 107283000000 
951.49847360007 120922000000 
961.01345833607 148115000000 
970.62359291943  76735200000 
980.32982884862 136562000000 
990.13312713711 122134000000 
1000.0344584085 127384000000 
1010.0348029926 126799000000 
1020.1351510225  83276000000 
1030.3365025327 120676000000 
1040.639867558 131960000000 
1051.0462662336 127730000000 
1061.556728896 115325000000 
1072.1722961849 116733000000 
1082.8940191468 105653000000 
1093.7229593382 113252000000 
1104.6601889316 106943000000 
1115.7067908209  94320700000 
1126.8638587291 101287000000 
1138.1324973164  96479500000 
1149.5138222896  93325100000 
1161.0089605125  90275300000 
1172.6190501176  70236600000 
1184.3452406188  81940450000 
1196.188693025  76450100000 
1208.1505799552  51889600000 
1220.2320857548  72811800000 
1232.4344066123  76579900000 
1244.7587506785  73916700000 
1257.2063381852  73722900000 
1269.7784015671  73175700000 
1282.4761855828  69999150000 
1295.3009474386  67365800000 
1308.253956913  68244800000 
1321.3364964821  65662900000 
1334.5498614469  63569500000 
1347.8953600614  61755400000 
1361.374313662  59717500000 
1374.9880567986  57609650000 
1388.7379373666  50805500000 
1402.6253167403  51772050000 
1416.6515699077  49128800000 
1430.8180856068 50401894117.647 
1445.1262664628 48551653846.154 
1459.5775291275  47093500000 
1474.1733044187  46031050000 
1488.9150374629  44477200000 
1503.8041878376 43086690909.091 
1518.8422297159  41400100000 
1534.0306520131  36121850000 
1549.3709585332  34134400000 
1564.8646681186  35777800000 
1580.5133147997  35775150000 
1596.3184479477  33512000000 
1612.2816324272  32348500000 
1628.4044487515  32086200000 
1644.688493239  31499050000 
1661.1353781714 30983718181.818 
1677.7467319531  31022500000 
1694.5241992726  29893950000 
1711.4694412654  28186400000 
1728.584135678  28044400000 
1745.8699770348  27142700000 
1763.3286768051  26458050000 
1780.9619635732  25742150000 
1798.7715832089  24901000000 
1816.759299041  24149200000 
1834.9268920314  23520100000 
1853.2761609517  22653650000 
1871.8089225613  21765850000 
1890.5270117869  21067750000 
1909.4322819047  20088600000 
1928.5266047238  20013200000 
1947.811870771 19035245454.545 
1967.2899894787 18893405882.353 
1986.9628893735 18135728571.429 
2006.8325182673  17863900000 
2026.9008434499  17166000000 
2047.1698518844  13833400000 
2067.6415504033  13753880000 
2088.3179659073  14943400000 
2109.2011455664  15256250000 
2130.293157022  14804500000 
2151.5960885923  14315400000 
2173.1120494782  13955550000 
2194.843169973 13509333333.333 
2216.7916016727  13100600000 
2238.9595176894  12546400000 
2261.3491128663  12346500000 
2283.962603995 11611733333.333 
2306.8022300349  11428350000 
2329.8702523353  11113450000 
2353.1689548586 10698766666.667 
2376.7006444072  10131850000 
2400.4676508513  10020275000 
2424.4723273598   9677490000 
2448.7170506334   9341890000 
2473.2042211397 8744656666.6667 
2497.9362633511 8477040434.7826 
2522.9156259846 8403791111.1111 
2548.1447822445   8130760000 
2573.6262300669 7868213333.3333 
2599.3624923676 7579423333.3333 
2625.3561172913   7332505000 
2651.6096784642 7068636666.6667 
2678.1257752488   6842300000 
2704.9070330013 6622853333.3333 
2731.9561033313 6349516666.6667 
2759.2756643647 6145813333.3333 
2786.8684210083   5923450000 
2814.7371052184   5761040000 
2842.8844762706   5572440000 
2871.3133210333 5369603333.3333 
2900.0264542436   5199330000 
2929.026718786   5010970000 
2958.3169859739   4842340000 
2987.9001558336   4660690000 
3017.779157392   4494460000 
3047.9569489659   4354725000 
3078.4365184556   4192600000 
3109.2208836401   4065410000 
3140.3130924765   3882565000 
3171.7162234013   3738020000 
3203.4333856353   3620235000 
3235.4677194916   3520400000 
3267.8223966866   3400305000 
3300.5006206534   3259195000 
3333.50562686   3148690000 
3366.8406831286   3058210000 
3400.5090899598   2932065000 
3434.5141808594   2829630000 
3468.859322668   2749995000 
3503.5479158947   2643320000 
3538.5833950537   2543300000 
3573.9692290042   2457150000 
3609.7089212942   2379022000 
3645.8060105072 2225683333.3333 
3682.2640706123   2141680000 
3719.0867113184   2054150000 
3756.2775784316   1993130000 
3793.8403542159   1950950000 
3831.778757758   2049315000 
3870.0965453356   1731250000 
3908.797510789   1993900000 
3947.8854858969   1763840000 
3987.3643407558   1851510000 
4027.2379841634   1774975000 
4067.510364005   1678065000 
4108.1854676451   1552820000 
4149.2673223215   1606690000 
4190.7599955447   1542045000 
4232.6675955002   1485360000 
4274.9942714552   1428830000 
4317.7442141697   1250535000 
4360.9216563114   1321080000 
4404.5308728746   1295035000 
4448.5761816033 1230353333.3333 
4493.0619434193   1193960000 
4537.9925628535   1151805000 
4583.3724884821   1117510000 
4629.2062133669 1063406666.6667 
4675.4982755006   1016515000 
4722.2532582556   1001065000 
4769.4757908381 962813333.33333 
4817.1705487465    894125000 
4865.342254234    847799000 
4913.9956767763    847360500 
4963.1356335441 822643666.66667 
5012.7669898795    793230000 
5062.8946597783    766157000 
5113.5236063761    737948000 
5164.6588424398    711727000 
5216.3054308642    686278500 
5268.4684851729 662116666.66667 
5321.1531700246 634575666.66667 
5374.3647017249    609917500 
5428.1083487421 591531666.66667 
5482.3894322295 567447333.33333 
5537.2133265518    544517000 
5592.5854598173    526459500 
5648.5113144155 507835666.66667 
5704.9964275597 482319333.33333 
5762.0463918353    463987000 
5819.6668557536 442846333.33333 
5877.8635243112 430108333.33333 
5936.6421595543    415816000 
5996.0085811498    401998000 
6055.9686669613 387897333.33333 
6116.5283536309 373555333.33333 
6177.6936371672    360088000 
6239.4705735389    347085000 
6301.8652792743 334681333.33333 
6364.883932067 322855666.66667 
6428.5327713877    309630750 
6492.8180991016    293029000 
6557.7462800926 274645333.33333 
6623.3237428935    276307000 
6689.5569803225    265542500 
6756.4525501257    255924000 
6824.0170756269    246041750 
6892.2572463832 236692333.33333 
6961.179818847    227764750 
7030.7916170355 218343333.33333 
7101.0995332059    211073250 
7172.1105285379    203159000 
7243.8316338233    195648750 
7316.2699501615 188881333.33333 
7389.4326496631    182132500 
7463.3269761598    174726000 
7537.9602459214    167687500 
7613.3398483806 161947333.33333 
7689.4732468644    156340250 
7766.367979333    150282750 
7844.0316591264    144543250 
7922.4719757176    139043750 
8001.6966954748    133788500 
8081.7136624296    128673750 
8162.5307990539    123409750 
8244.1561070444    118604500 
8326.5976681148    114283750 
8409.863644796    109694200 
8493.9622812439    105330750 
8578.9019040564    101377275 
8664.6909230969     97056140 
8751.3378323279     94551800 
8838.8512106512     89467675 
8927.2397227577     87223480 
9016.5121199853     84102050 
9106.6772411851     82576460 
9197.744013597     75644450 
9289.721453733     76646980 
9382.6186682703     73679760 
9476.444854953     67541860 
9571.2093035025     67889125 
9666.9213965375     65750480 
9763.5906105029     63272040 
9861.226516608     60791560 
9959.838781774 57436153.333333 
10059.437169592     54686950 
10160.031541288     54340950 
10261.631856701     52231300 
10364.248175268     50384750 
10467.89065702     48536100 
10572.56956359     46329700 
10678.295259226     44273650 
10785.078211819     42419300 
10892.928993937     39163250 
11001.858283876     39616950 
11111.876866715     38382750 
11222.995635382 36743166.666667 
11335.225591736     35192900 
11448.577847653     34012250 
11563.06362613 32577033.333333 
11678.694262391     31267750 
11795.481205015     30245750 
11913.436017065 28935633.333333 
12032.570377236     27870300 
12152.896081008     26987500 
12274.425041818 25931466.666667 
12397.169292236     24925250 
12521.140985159 23955033.333333 
12646.35239501     23037550 
12772.81591896 21439666.666667 
12900.54407815     21148400 
13029.549518932     20415100 
13159.845014121 19669466.666667 
13291.443464262     18954100 
13424.357898905 18270633.333333 
13558.601477894     17496600 
13694.187492673 16760166.666667 
13831.129367599     16174850 
13969.440661275     15617000 
14109.135067888 14978066.666667 
14250.226418567 14370933.333333 
14392.728682753 13794466.666667 
14536.65596958 13244886.666667 
14682.022529276     12721000 
14828.842754569 12231133.333333 
14977.131182115 11754866.666667 
15126.902493936 11312033.333333 
15278.171518875 10883066.666667 
15430.953234064 10473033.333333 
15585.262766404 10079283.333333 
15741.115394068 9702916.6666667 
15898.526548009 9315045.7142857 
16057.511813489      8924610 
16218.086931624      8643725 
16380.26780094      8261410 
16544.07047895      8083320 
16709.511183739      7593475 
16876.606295577      7439080 
17045.372358532      7178155 
17215.826082118      6757485 
17387.984342939      6545875 
17561.864186368      6351100 
17737.482828232      6142360 
17914.857656514      5871705 
18094.006233079      5498255 
18274.94629541      5387675 
18457.695758364      5215400 
18642.272715948      4926355 
18828.695443107      4840660 
19016.982397539      4640040 
19207.152221514      4450345 
19399.223743729      4178145 
19593.215981166      4113075 
19789.148140978      3951880 
19987.039622388      3798565 
20186.910018612      3652495 
20388.779118798      3510985 
20592.666909986      3380955 
20798.593579086      3254625 
21006.579514877      3129895 
21216.645310025      3019130 
21428.811763126      2903180 
21643.099880757      2730120 
21859.530879564      2656080 
22078.12618836      2562420 
22298.907450244      2473020 
22521.896524746      2387395 
22747.115489993 2285646.6666667 
22974.586644893      2188855 
23204.332511342      2115530 
23436.375836456      2028090 
23670.73959482      1944795 
23907.446990769      1881385 
24146.521460676 1805736.6666667 
24387.986675283      1734825 
24631.866542036 1665623.3333333 
24878.185207456      1600780 
25126.967059531 1538776.6666667 
25378.236730126      1480575 
25632.019097427      1423310 
25888.339288402      1368450 
26147.222681286 1292196.6666667 
26408.694908098 1259863.3333333 
26672.781857179      1208795 
26939.509675751 1172326.6666667 
27208.904772509 1121136.6666667 
27480.993820234      1066740 
27755.803758436      1036620 
28033.361796021      1000555 
28313.695413981 958807.33333333 
28596.832368121 910143.33333333 
28882.800691802 882861.66666667 
29171.62869872       847528 
29463.344985707 813935.66666667 
29757.978435564 781973.66666667 
30055.55821992       745344 
30356.113802119 718298.66666667 
30659.67494014       695051 
30966.271689541       668810 
31275.934406437 643782.33333333 
31588.693750501 619925.66666667 
31904.580688006     597865.6 
32223.626494886       571884 
32545.862759835       550884 
32871.321387434       523991 
33200.034601308     506908.5 
33532.034947321       489420 
33867.355296794     472489.5 
34206.028849762     450962.5 
34548.08913826       435616 
34893.570029642       420946 
35242.505729939     402318.5 
35594.930787238       384691 
35950.880095111     368026.5 
36310.388896062       356102 
36673.492785022       344691 
37040.227712872       327595 
37410.629990001       313321 
37784.736289901     303277.5 
38162.5836528       290898 
38544.209489328     279124.5 
38929.651584221     267743.5 
39318.948100064     257305.5 
39712.137581064       246947 
40109.258956875     234073.5 
40510.351546444     228268.5 
40915.455061908       219631 
41324.609612527     210721.5 
41737.855708653       203364 
42155.234265739     195886.5 
42576.786608396     188618.5 
43002.55447448     181828.5 
43432.580019225     174485.5 
43866.905819417 167246.33333333 
44305.574877612       160136 
44748.630626388       154569 
45196.116932652     149202.5 
45648.078101978 142818.33333333 
46104.558882998       134526 
46565.604471828       130673 
47031.260516546 126668.33333333 
47501.573121712     121456.5 
47976.588852929       117479 
48456.354741458 112741.33333333 
48940.918288873       108225 
49430.327471761 103945.66666667 
49924.630746479      99863.3 
50423.877053944 95989.866666667 
50928.115824483     91187.15 
51437.396982728      88683.7 
51951.770952555      85425.4 
52471.288662081 82235.966666667 
52996.001548702      78597.4 
53525.961564189     75711.25 
54061.221179831 72967.166666667 
54601.833391629      69829.7 
55147.851725545      67338.6 
55699.330242801 64966.633333333 
56256.323545229      62250.2 
56818.886780681      59661.1 
57387.075648488 57229.766666667 
57960.946404973      54914.3 
58540.555869022 52161.366666667 
59125.961427713 50448.066666667 
59717.22104199 48631.433333333 
60314.39325241 46735.633333333 
60917.537184934      44931.2 
61526.712556783      43212.5 
62141.979682351      41554.5 
62763.399479174 39900.966666667 
63391.033473966 38526.333333333 
64024.943808706 36811.928571429 
64665.193246793      35529.6 
65311.845179261     34249.05 
65964.963631053      32625.5 
66624.613267364      31467.7 
67290.859400038     30235.95 
67963.767994038      28967.8 
68643.405673978      27969.5 
69329.839730718      27018.5 
70023.138128025     25808.85 
70723.369509305     24666.15 
71430.603204399      23848.7 
72144.909236443     23067.85 
72866.358328807     22073.85 
73595.021912095      21112.8 
74330.972131216     19733.75 
75074.281852528      19356.8 
75825.024671053      18789.7 
76583.274917764      18209.1 
77349.107666942        17468 
78122.598743611     16764.25 
78903.824731047      16095.4 
79692.862978358      15459.6 
80489.791608141      14854.9 
81294.689524223     14274.75 
82107.636419465      13731.2 
82928.712783659     13209.35 
83757.999911496     12711.95 
84595.579910611 12123.533333333 
85441.535709717     11566.45 
86295.951066814     11125.65 
87158.910577482     10636.95 
88030.499683257      10356.8 
88910.80468009     9989.335 
89799.912726891 9552.9066666667 
90697.91185416     9138.605 
91604.890972701     8823.895 
92520.939882428      8449.47 
93446.149281253     8065.635 
94380.610774065      7823.01 
95324.416881806 7500.8966666667 
96277.661050624     7193.895 
97240.43766113      6903.64 
98212.842037741     6626.735 
99194.970458119     6415.495 
100186.9201627      6262.18 
199060.83304441      387.674 
399467.9878358      23.6045 
594753.39981818      4.58524 
793700.71765891      1.43293 
997811.18987739      0.58122 
1193529.3359837     0.277995 
1399507.0114645      0.14901 
