#  WAVELENGTH	        FLUX	
#  (ANGSTROM)	(ERG/CM2/S/A)	
############	############	
362.43892950602  3.22406E-24 
373.42119150899  1.97438E-23 
384.7362270329  1.33188E-22 
392.46942519626  8.10687E-22 
404.36164124913  4.49068E-21 
412.48931023824  1.94561E-20 
420.78034537403  6.77075E-20 
429.23803031605  2.24306E-19 
437.8657147254  1.07974E-18 
446.66681559138  4.19515E-18 
455.64481858477  1.34868E-17 
469.4513122327  4.66864E-17 
478.88728360858  1.52839E-16 
488.51291800911  4.75267E-16 
498.3320276611  1.40623E-15 
503.31534793771  3.49588E-15 
508.34850141708  7.26217E-15 
518.56630629557   1.6011E-14 
528.98948905211  4.17716E-14 
539.62217778206   1.0316E-13 
545.01839955988  2.49041E-13 
555.97326939103  5.77409E-13 
567.14833210579  1.29624E-12 
578.54801358112  2.79054E-12 
584.33349371693  5.96935E-12 
596.07859694064  1.22835E-11 
608.05977673914  2.46338E-11 
614.14037450653   4.8179E-11 
626.48459603412  9.20432E-11 
639.0769364144  1.72031E-10 
645.46770577855  3.14803E-10 
651.92238283633  5.03016E-10 
658.44160666469  7.49943E-10 
671.67628295866   1.30666E-9 
678.39304578824   2.23569E-9 
692.02874600859   3.75985E-9 
698.94903346867    6.2105E-9 
712.99790904139   1.06202E-8 
720.12788813181   1.70055E-8 
734.60245868325   2.56628E-8 
741.94848327009   4.00118E-8 
749.36796810279   6.15642E-8 
764.43026426165   9.35349E-8 
772.07456690427   1.40374E-7 
779.79531257331   2.08257E-7 
787.59326569905    3.0405E-7 
803.4238903396   4.42443E-7 
811.45812924299   6.35857E-7 
819.57271053542   9.03877E-7 
827.76843764078   1.27263E-6 
844.40658323736   1.77516E-6 
852.85064906973   2.45402E-6 
861.37915556043   3.36331E-6 
869.99294711603   4.56623E-6 
878.69287658719   6.16256E-6 
887.47980535306   8.24549E-6 
896.3546034066   1.09359E-5 
914.37133093507    0.0137958 
923.51504424442    0.0464735 
932.75019468686    0.0619419 
942.07769663373    0.0840681 
951.49847360007     0.116465 
961.01345833607      0.15318 
970.62359291943     0.191955 
980.32982884862     0.254218 
990.13312713711     0.319555 
1000.0344584085     0.424539 
1010.0348029926     0.536266 
1020.1351510225     0.643753 
1030.3365025327     0.852757 
1040.639867558      1.07404 
1051.0462662336      1.34114 
1061.556728896      1.64307 
1072.1722961849      2.05143 
1082.8940191468      2.54086 
1093.7229593382      3.07689 
1104.6601889316     17.93439 
1115.7067908209      39.0417 
1126.8638587291      55.1456 
1138.1324973164      68.9655 
1149.5138222896      74.5257 
1161.0089605125      96.8096 
1172.6190501176      108.725 
1184.3452406188      86.5612 
1196.188693025      42.2441 
1208.1505799552      15.2405 
1220.2320857548      50.1922 
1232.4344066123       125.14 
1244.7587506785      403.582 
1257.2063381852      624.836 
1269.7784015671      938.728 
1282.4761855828       1550.3 
1295.3009474386      1724.09 
1308.253956913      2414.77 
1321.3364964821         2919 
1334.5498614469      3688.84 
1347.8953600614      4305.05 
1361.374313662      4952.09 
1374.9880567986     5718.735 
1388.7379373666      6878.44 
1402.6253167403     8006.795 
1416.6515699077      9235.95 
1430.8180856068 10214.688235294 
1445.1262664628 12450.053846154 
1459.5775291275      13365.7 
1474.1733044187     15625.75 
1488.9150374629      18423.3 
1503.8041878376 21051.686363636 
1518.8422297159      24740.9 
1534.0306520131      41168.1 
1549.3709585332      49963.7 
1564.8646681186      52575.5 
1580.5133147997      68577.5 
1596.3184479477        74636 
1612.2816324272      85663.3 
1628.4044487515       133472 
1644.688493239     217997.5 
1661.1353781714 507292.13636364 
1677.7467319531      1468990 
1694.5241992726      1949945 
1711.4694412654      3847745 
1728.584135678      4943235 
1745.8699770348      6016150 
1763.3286768051      4865750 
1780.9619635732      6579035 
1798.7715832089      6391050 
1816.759299041      5820590 
1834.9268920314      5414160 
1853.2761609517      6363350 
1871.8089225613      6764560 
1890.5270117869      7271240 
1909.4322819047      7457785 
1928.5266047238      6576515 
1947.811870771 9124111.8181818 
1967.2899894787 9118098.2352941 
1986.9628893735 8497282.8571429 
2006.8325182673      7715955 
2026.9008434499      9245975 
2047.1698518844      8973855 
2067.6415504033     10883300 
2088.3179659073      9906660 
2109.2011455664     10183650 
2130.293157022      9140295 
2151.5960885923      9680775 
2173.1120494782      9627025 
2194.843169973 10181513.333333 
2216.7916016727     10041605 
2238.9595176894      9405450 
2261.3491128663      9386535 
2283.962603995 10020693.333333 
2306.8022300349      9703280 
2329.8702523353      6950855 
2353.1689548586      7960540 
2376.7006444072      5836895 
2400.4676508513      6603645 
2424.4723273598      9373650 
2448.7170506334      9848615 
2473.2042211397 8692326.6666667 
2497.9362633511 9585697.3913043 
2522.9156259846 7066842.962963 
2548.1447822445      8267020 
2573.6262300669 9268383.3333333 
2599.3624923676 8485586.6666667 
2625.3561172913     11904000 
2651.6096784642 12587666.666667 
2678.1257752488     11953400 
2704.9070330013 11222133.333333 
2731.9561033313 9949276.6666667 
2759.2756643647     11037200 
2786.8684210083      5076700 
2814.7371052184 13216333.333333 
2842.8844762706     12163600 
2871.3133210333 12835033.333333 
2900.0264542436     14733600 
2929.026718786     13886550 
2958.3169859739     14528300 
2987.9001558336     14754350 
3017.779157392     14848200 
3047.9569489659     15070550 
3078.4365184556     15491200 
3109.2208836401     15002550 
3140.3130924765     15521250 
3171.7162234013     14433400 
3203.4333856353     14607100 
3235.4677194916     15022800 
3267.8223966866     15629300 
3300.5006206534     15855200 
3333.50562686     15508600 
3366.8406831286     15326500 
3400.5090899598     15614350 
3434.5141808594     15656700 
3468.859322668     15485500 
3503.5479158947     15764750 
3538.5833950537     15867050 
3573.9692290042     15324600 
3609.7089212942     15549760 
3645.8060105072 16130233.333333 
3682.2640706123     16132350 
3719.0867113184     19804650 
3756.2775784316     25415000 
3793.8403542159     28100900 
3831.778757758     34568350 
3870.0965453356     24258000 
3908.797510789     32476200 
3947.8854858969     28519150 
3987.3643407558     36898600 
4027.2379841634     37833950 
4067.510364005     34273200 
4108.1854676451     30841300 
4149.2673223215 36660833.333333 
4190.7599955447     35845300 
4232.6675955002     35311800 
4274.9942714552     33603000 
4317.7442141697     26569200 
4360.9216563114     33717650 
4404.5308728746     33271700 
4448.5761816033     33167300 
4493.0619434193     33036400 
4537.9925628535     32486400 
4583.3724884821     32157100 
4629.2062133669 31757033.333333 
4675.4982755006     30511350 
4722.2532582556     30917150 
4769.4757908381     30156600 
4817.1705487465     26687450 
4865.342254234     25374500 
4913.9956767763     28090800 
4963.1356335441 27564166.666667 
5012.7669898795     27208850 
5062.8946597783 26966733.333333 
5113.5236063761     26102800 
5164.6588424398 25210033.333333 
5216.3054308642     25222850 
5268.4684851729     24556300 
5321.1531700246     24132000 
5374.3647017249     23681350 
5428.1083487421 23450766.666667 
5482.3894322295     23042100 
5537.2133265518 22526233.333333 
5592.5854598173     22180150 
5648.5113144155 21776233.333333 
5704.9964275597     21407300 
5762.0463918353     20972500 
5819.6668557536     20518200 
5877.8635243112 19976033.333333 
5936.6421595543 19638533.333333 
5996.0085811498 19168933.333333 
6055.9686669613 18792066.666667 
6116.5283536309 18154833.333333 
6177.6936371672 17973833.333333 
6239.4705735389 17529066.666667 
6301.8652792743     17167300 
6364.883932067 16801966.666667 
6428.5327713877     16308950 
6492.8180991016 15278266.666667 
6557.7462800926 14025866.666667 
6623.3237428935     15347200 
6689.5569803225     15031250 
6756.4525501257 14689333.333333 
6824.0170756269     14331550 
6892.2572463832     14000600 
6961.179818847     13651700 
7030.7916170355 13349366.666667 
7101.0995332059     12974250 
7172.1105285379     12684700 
7243.8316338233     12406500 
7316.2699501615 12139066.666667 
7389.4326496631     11813700 
7463.3269761598     11522050 
7537.9602459214     11265150 
7613.3398483806     10990800 
7689.4732468644     10743625 
7766.367979333     10450775 
7844.0316591264     10198275 
7922.4719757176      9936825 
8001.6966954748    9708547.5 
8081.7136624296    9480432.5 
8162.5307990539      9200400 
8244.1561070444    9018077.5 
8326.5976681148      8778260 
8409.863644796      8516768 
8493.9622812439      8104985 
8578.9019040564    8117607.5 
8664.6909230969      7705124 
8751.3378323279    8066087.5 
8838.8512106512    7496197.5 
8927.2397227577      7565618 
9016.5121199853    7389267.5 
9106.6772411851      7477442 
9197.744013597    6680672.5 
9289.721453733      7143982 
9382.6186682703      6903146 
9476.444854953      6306584 
9571.2093035025      6513230 
9666.9213965375      6403472 
9763.5906105029      6250548 
9861.226516608      6058162 
9959.838781774 5752040.6666667 
10059.437169592      5491790 
10160.031541288      5606165 
10261.631856701      5462580 
10364.248175268      5320370 
10467.89065702      5153660 
10572.56956359 4972666.6666667 
10678.295259226      4815255 
10785.078211819      4662490 
10892.928993937      4229560 
11001.858283876      4471190 
11111.876866715      4368085 
11222.995635382 4211246.6666667 
11335.225591736      4084285 
11448.577847653      4007670 
11563.06362613 3854633.3333333 
11678.694262391      3738925 
11795.481205015      3637905 
11913.436017065 3551323.3333333 
12032.570377236      3443010 
12152.896081008      3375305 
12274.425041818 3271473.3333333 
12397.169292236      3181440 
12521.140985159 3078626.6666667 
12646.35239501      2988875 
12772.81591896 2732956.6666667 
12900.54407815 2808276.6666667 
13029.549518932      2735040 
13159.845014121      2656740 
13291.443464262      2585670 
13424.357898905 2513453.3333333 
13558.601477894 2428693.3333333 
13694.187492673      2341650 
13831.129367599      2286050 
13969.440661275      2224400 
14109.135067888 2151073.3333333 
14250.226418567 2082613.3333333 
14392.728682753 2001056.6666667 
14536.65596958      1950617 
14682.022529276 1886076.6666667 
14828.842754569 1829833.3333333 
14977.131182115      1770510 
15126.902493936      1720120 
15278.171518875 1659483.3333333 
15430.953234064 1605043.3333333 
15585.262766404      1551510 
15741.115394068      1493290 
15898.526548009 1475052.8571429 
16057.511813489      1368480 
16218.086931624      1395120 
16380.26780094      1273160 
16544.07047895      1331260 
16709.511183739      1204285 
16876.606295577      1235370 
17045.372358532      1198670 
17215.826082118      1086065 
17387.984342939      1087980 
17561.864186368      1065930 
17737.482828232      1036205 
17914.857656514     992300.5 
18094.006233079       899436 
18274.94629541     916426.5 
18457.695758364       888435 
18642.272715948       818574 
18828.695443107     822182.5 
19016.982397539     801417.5 
19207.152221514     765614.5 
19399.223743729     701875.5 
19593.215981166     713405.5 
19789.148140978     688803.5 
19987.039622388     664476.5 
20186.910018612       639630 
20388.779118798       617803 
20592.666909986     595128.5 
20798.593579086       574485 
21006.579514877     554082.5 
21216.645310025     534642.5 
21428.811763126       514829 
21643.099880757 477598.33333333 
21859.530879564       474714 
22078.12618836     458928.5 
22298.907450244       444345 
22521.896524746     428992.5 
22747.115489993 412311.66666667 
22974.586644893       396267 
23204.332511342     383813.5 
23436.375836456       369002 
23670.73959482       354487 
23907.446990769     343632.5 
24146.521460676 330406.33333333 
24387.986675283     317742.5 
24631.866542036       305801 
24878.185207456       293966 
25126.967059531 283230.33333333 
25378.236730126     274290.5 
25632.019097427 262292.33333333 
25888.339288402       254488 
26147.222681286 235642.66666667 
26408.694908098       235770 
26672.781857179     221646.5 
26939.509675751 221271.66666667 
27208.904772509 211966.33333333 
27480.993820234 198078.33333333 
27755.803758436       196996 
28033.361796021 190484.33333333 
28313.695413981       182761 
28596.832368121 170489.66666667 
28882.800691802 168909.66666667 
29171.62869872 162532.33333333 
29463.344985707 156408.66666667 
29757.978435564       150505 
30055.55821992 142065.33333333 
30356.113802119 137887.66666667 
30659.67494014       134393 
30966.271689541       129422 
31275.934406437       124856 
31588.693750501 120481.66666667 
31904.580688006     116387.8 
32223.626494886     111546.5 
32545.862759835       107563 
32871.321387434     101217.5 
33200.034601308        99061 
33532.034947321      95681.2 
33867.355296794      92532.3 
34206.028849762      88603.5 
34548.08913826      85721.8 
34893.570029642      82968.3 
35242.505729939     79427.75 
35594.930787238      76072.2 
35950.880095111     72912.35 
36310.388896062      70544.5 
36673.492785022     68344.75 
37040.227712872      65078.5 
37410.629990001     62087.75 
37784.736289901      60442.2 
38162.5836528     58145.65 
38544.209489328     55941.55 
38929.651584221     53494.35 
39318.948100064      51826.2 
39712.137581064     49576.05 
40109.258956875      46843.9 
40510.351546444     46124.25 
40915.455061908      44509.6 
41324.609612527     42285.45 
41737.855708653     41242.15 
42155.234265739     39842.15 
42576.786608396     38426.35 
43002.55447448     37063.95 
43432.580019225     35290.05 
43866.905819417 34138.866666667 
44305.574877612      32786.5 
44748.630626388      31696.6 
45196.116932652     30629.65 
45648.078101978 29340.233333333 
46104.558882998      27601.1 
46565.604471828     26689.85 
47031.260516546 26119.966666667 
47501.573121712      25090.9 
47976.588852929     24292.65 
48456.354741458 23339.766666667 
48940.918288873     22428.85 
49430.327471761 21567.933333333 
49924.630746479     20736.85 
50423.877053944 19949.766666667 
50928.115824483     18863.65 
51437.396982728 18468.166666667 
51951.770952555     17822.55 
52471.288662081 17156.333333333 
52996.001548702 16436.733333333 
53525.961564189     15805.25 
54061.221179831      15288.7 
54601.833391629      14639.7 
55147.851725545      14094.6 
55699.330242801 13652.333333333 
56256.323545229 13098.333333333 
56818.886780681      12520.6 
57387.075648488 12068.033333333 
57960.946404973 11594.033333333 
58540.555869022      11012.2 
59125.961427713 10628.466666667 
59717.22104199      10301.3 
60314.39325241 9909.9066666667 
60917.537184934      9535.35 
61526.712556783      9181.02 
62141.979682351 8834.2366666667 
62763.399479174 8447.0666666667 
63391.033473966      8207.92 
64024.943808706 7851.5042857143 
64665.193246793      7583.55 
65311.845179261     7317.555 
65964.963631053      6978.51 
66624.613267364      6736.58 
67290.859400038      6458.55 
67963.767994038     6212.855 
68643.405673978      6003.31 
69329.839730718      5803.52 
70023.138128025      5549.67 
70723.369509305      5309.05 
71430.603204399       5137.6 
72144.909236443      4970.08 
72866.358328807      4763.51 
73595.021912095      4564.07 
74330.972131216      4280.03 
75074.281852528     4194.095 
75825.024671053      4069.35 
76583.274917764      3946.38 
77349.107666942      3783.02 
78122.598743611     3639.885 
78903.824731047     3497.735 
79692.862978358      3362.31 
80489.791608141      3233.47 
81294.689524223      3102.19 
82107.636419465      2993.93 
82928.712783659     2882.175 
83757.999911496      2775.64 
84595.579910611 2650.1366666667 
85441.535709717       2530.7 
86295.951066814      2429.89 
87158.910577482     2335.305 
88030.499683257     2271.025 
88910.80468009     2192.025 
89799.912726891      2098.11 
90697.91185416     2008.815 
91604.890972701     1941.065 
92520.939882428      1860.33 
93446.149281253      1773.25 
94380.610774065     1724.885 
95324.416881806 1655.0666666667 
96277.661050624     1588.785 
97240.43766113      1525.72 
98212.842037741      1465.33 
99194.970458119     1419.895 
100186.9201627      1386.62 
199060.83304441      89.6149 
399467.9878358      5.61799 
594753.39981818      1.10382 
793700.71765891     0.347151 
997811.18987739     0.141398 
1193529.3359837    0.0678454 
1399507.0114645    0.0364563 
