#  WAVELENGTH	        FLUX	
#  (ANGSTROM)	(ERG/CM2/S/A)	
############	############	
362.43892950602  3.42909E-24 
373.42119150899  2.08365E-23 
384.7362270329   1.3941E-22 
392.46942519626  8.41955E-22 
404.36164124913   4.6294E-21 
412.48931023824    1.993E-20 
420.78034537403   6.8981E-20 
429.23803031605  2.27322E-19 
437.8657147254  1.08681E-18 
446.66681559138  4.19736E-18 
455.64481858477  1.34247E-17 
469.4513122327   4.6219E-17 
478.88728360858  1.50509E-16 
488.51291800911  4.65665E-16 
498.3320276611  1.37115E-15 
503.31534793771  3.39791E-15 
508.34850141708  7.03856E-15 
518.56630629557  1.54621E-14 
528.98948905211  4.01716E-14 
539.62217778206  9.88272E-14 
545.01839955988  2.37558E-13 
555.97326939103  5.48662E-13 
567.14833210579  1.22713E-12 
578.54801358112  2.63218E-12 
584.33349371693  5.61125E-12 
596.07859694064  1.15081E-11 
608.05977673914  2.30037E-11 
614.14037450653  4.48481E-11 
626.48459603412  8.54199E-11 
639.0769364144  1.59191E-10 
645.46770577855   2.9047E-10 
651.92238283633  4.63086E-10 
658.44160666469  6.89118E-10 
671.67628295866   1.19752E-9 
678.39304578824   2.04381E-9 
692.02874600859   3.42837E-9 
698.94903346867   5.64923E-9 
712.99790904139   9.63548E-9 
720.12788813181    1.5393E-8 
734.60245868325   2.31837E-8 
741.94848327009    3.6068E-8 
749.36796810279   5.53789E-8 
764.43026426165   8.39755E-8 
772.07456690427    1.2576E-7 
779.79531257331   1.86212E-7 
787.59326569905   2.71342E-7 
803.4238903396   3.94122E-7 
811.45812924299   5.65397E-7 
819.57271053542   8.02308E-7 
827.76843764078   1.12767E-6 
844.40658323736   1.57023E-6 
852.85064906973   2.16734E-6 
861.37915556043   2.96546E-6 
869.99294711603   4.02031E-6 
878.69287658719   5.41701E-6 
887.47980535306   7.23666E-6 
896.3546034066   9.59093E-6 
914.37133093507    0.0104129 
923.51504424442    0.0378623 
932.75019468686    0.0511386 
942.07769663373    0.0701382 
951.49847360007    0.0968195 
961.01345833607     0.127774 
970.62359291943     0.159486 
980.32982884862     0.212706 
990.13312713711     0.267243 
1000.0344584085     0.356408 
1010.0348029926     0.449785 
1020.1351510225     0.537687 
1030.3365025327     0.721439 
1040.639867558     0.911066 
1051.0462662336      1.13396 
1061.556728896      1.40097 
1072.1722961849      1.75308 
1082.8940191468      2.17902 
1093.7229593382      2.65164 
1104.6601889316    12.173635 
1115.7067908209      25.2401 
1126.8638587291      36.9734 
1138.1324973164      46.0373 
1149.5138222896      50.6628 
1161.0089605125       63.556 
1172.6190501176      74.6624 
1184.3452406188     61.91355 
1196.188693025      38.4844 
1208.1505799552      15.7286 
1220.2320857548       46.276 
1232.4344066123      107.776 
1244.7587506785       250.43 
1257.2063381852      356.642 
1269.7784015671      481.982 
1282.4761855828      744.293 
1295.3009474386      919.338 
1308.253956913      1137.23 
1321.3364964821      1334.03 
1334.5498614469     1633.085 
1347.8953600614      1916.11 
1361.374313662      2241.31 
1374.9880567986      2542.62 
1388.7379373666      3001.01 
1402.6253167403      3545.75 
1416.6515699077      4087.46 
1430.8180856068 4638.3376470588 
1445.1262664628      5460.17 
1459.5775291275      5982.99 
1474.1733044187     6912.465 
1488.9150374629      8160.53 
1503.8041878376 9359.3827272727 
1518.8422297159      11079.4 
1534.0306520131        16708 
1549.3709585332        19726 
1564.8646681186      21062.1 
1580.5133147997     26536.55 
1596.3184479477      29089.6 
1612.2816324272      33771.6 
1628.4044487515      44534.5 
1644.688493239      53734.2 
1661.1353781714 86718.236363636 
1677.7467319531       219054 
1694.5241992726       417598 
1711.4694412654      1610240 
1728.584135678      2698660 
1745.8699770348      3751360 
1763.3286768051      2718085 
1780.9619635732      4544640 
1798.7715832089      3963300 
1816.759299041      3559500 
1834.9268920314      3168340 
1853.2761609517      4396440 
1871.8089225613      4962930 
1890.5270117869      5299520 
1909.4322819047      5555560 
1928.5266047238      4596395 
1947.811870771 7174762.7272727 
1967.2899894787 6864425.2941176 
1986.9628893735 6514304.2857143 
2006.8325182673      5944000 
2026.9008434499      7563780 
2047.1698518844      7448495 
2067.6415504033    9213084.5 
2088.3179659073      8419895 
2109.2011455664      8974365 
2130.293157022      8584750 
2151.5960885923      8870575 
2173.1120494782      9088900 
2194.843169973      9642600 
2216.7916016727      9974425 
2238.9595176894      9332230 
2261.3491128663      8658500 
2283.962603995      9711490 
2306.8022300349      9615815 
2329.8702523353      6712355 
2353.1689548586      7844180 
2376.7006444072      5489350 
2400.4676508513      6322695 
2424.4723273598 9450633.3333333 
2448.7170506334     10214700 
2473.2042211397 8170363.3333333 
2497.9362633511 8562778.2608696 
2522.9156259846 5957606.2962963 
2548.1447822445      7476900 
2573.6262300669 9372363.3333333 
2599.3624923676 8459106.6666667 
2625.3561172913     12706150 
2651.6096784642 13859166.666667 
2678.1257752488     13345350 
2704.9070330013 12009633.333333 
2731.9561033313     10331940 
2759.2756643647     11556210 
2786.8684210083      4286255 
2814.7371052184 14578766.666667 
2842.8844762706 12074453.333333 
2871.3133210333 14579433.333333 
2900.0264542436     17048300 
2929.026718786     15807000 
2958.3169859739     16535100 
2987.9001558336     16553600 
3017.779157392     16751800 
3047.9569489659     17288050 
3078.4365184556     17419400 
3109.2208836401     17253900 
3140.3130924765     17479750 
3171.7162234013     16261100 
3203.4333856353     16354500 
3235.4677194916     17071900 
3267.8223966866     18130200 
3300.5006206534     18280600 
3333.50562686     17855800 
3366.8406831286     17309100 
3400.5090899598     17499150 
3434.5141808594     17570600 
3468.859322668     17692850 
3503.5479158947     17784650 
3538.5833950537     17838950 
3573.9692290042     16861500 
3609.7089212942     17230620 
3645.8060105072 18266466.666667 
3682.2640706123     17712250 
3719.0867113184     17050150 
3756.2775784316     19692750 
3793.8403542159     20405200 
3831.778757758     24301250 
3870.0965453356     18973100 
3908.797510789     21911300 
3947.8854858969     20514850 
3987.3643407558     26152000 
4027.2379841634     26622200 
4067.510364005     24915200 
4108.1854676451     23177650 
4149.2673223215 26267666.666667 
4190.7599955447     25550250 
4232.6675955002     25402850 
4274.9942714552     23987750 
4317.7442141697     20955800 
4360.9216563114     24891600 
4404.5308728746     24718400 
4448.5761816033     24653000 
4493.0619434193     24748900 
4537.9925628535     24539000 
4583.3724884821     24281300 
4629.2062133669 24100633.333333 
4675.4982755006     23383850 
4722.2532582556     23623250 
4769.4757908381 23223533.333333 
4817.1705487465     21297600 
4865.342254234 20246333.333333 
4913.9956767763     21826500 
4963.1356335441 21488033.333333 
5012.7669898795     21346700 
5062.8946597783 21210633.333333 
5113.5236063761     20630600 
5164.6588424398     19753900 
5216.3054308642     20132650 
5268.4684851729 19679033.333333 
5321.1531700246 19364166.666667 
5374.3647017249     19069750 
5428.1083487421     18968000 
5482.3894322295     18717300 
5537.2133265518 18340833.333333 
5592.5854598173     18122250 
5648.5113144155 17879833.333333 
5704.9964275597 17625966.666667 
5762.0463918353     17343700 
5819.6668557536 17027733.333333 
5877.8635243112     16592600 
5936.6421595543 16415133.333333 
5996.0085811498     16074700 
6055.9686669613 15803566.666667 
6116.5283536309     15297400 
6177.6936371672 15194733.333333 
6239.4705735389     14877800 
6301.8652792743 14604733.333333 
6364.883932067 14337866.666667 
6428.5327713877     13949375 
6492.8180991016     13203200 
6557.7462800926 12232233.333333 
6623.3237428935     13238400 
6689.5569803225     13012175 
6756.4525501257     12743400 
6824.0170756269     12467375 
6892.2572463832     12212500 
6961.179818847     11940725 
7030.7916170355 11703466.666667 
7101.0995332059     11416525 
7172.1105285379 11169466.666667 
7243.8316338233     10958775 
7316.2699501615 10746666.666667 
7389.4326496631     10475650 
7463.3269761598     10262925 
7537.9602459214     10042550 
7613.3398483806 9817233.3333333 
7689.4732468644    9618887.5 
7766.367979333    9393212.5 
7844.0316591264    9192137.5 
7922.4719757176      8962970 
8001.6966954748      8774395 
8081.7136624296      8586035 
8162.5307990539      8347190 
8244.1561070444      8195485 
8326.5976681148      7995265 
8409.863644796      7796258 
8493.9622812439    7410957.5 
8578.9019040564      7420020 
8664.6909230969      7067224 
8751.3378323279    7106357.5 
8838.8512106512    6796782.5 
8927.2397227577      6709954 
9016.5121199853      6556310 
9106.6772411851      6547018 
9197.744013597    6048972.5 
9289.721453733      6267252 
9382.6186682703      6071298 
9476.444854953      5676354 
9571.2093035025      5769610 
9666.9213965375      5668024 
9763.5906105029      5536126 
9861.226516608      5384580 
9959.838781774 5161016.6666667 
10059.437169592      4959005 
10160.031541288      5004690 
10261.631856701      4888520 
10364.248175268      4769490 
10467.89065702      4639050 
10572.56956359 4478683.3333333 
10678.295259226      4348715 
10785.078211819      4215050 
10892.928993937      3896225 
11001.858283876      4060060 
11111.876866715      3974440 
11222.995635382 3848613.3333333 
11335.225591736      3738995 
11448.577847653      3670955 
11563.06362613 3546583.3333333 
11678.694262391      3445545 
11795.481205015      3359385 
11913.436017065 3277983.3333333 
12032.570377236      3188650 
12152.896081008      3136355 
12274.425041818      3047100 
12397.169292236      2968760 
12521.140985159 2883643.3333333 
12646.35239501      2799675 
12772.81591896 2575893.3333333 
12900.54407815 2645273.3333333 
13029.549518932      2582135 
13159.845014121 2515276.6666667 
13291.443464262      2454080 
13424.357898905      2393300 
13558.601477894      2318350 
13694.187492673 2245223.3333333 
13831.129367599      2195080 
13969.440661275      2139730 
14109.135067888      2074070 
14250.226418567      2013750 
14392.728682753      1942920 
14536.65596958      1897569 
14682.022529276 1839013.3333333 
14828.842754569      1785390 
14977.131182115 1730253.3333333 
15126.902493936 1690796.6666667 
15278.171518875      1640280 
15430.953234064      1592480 
15585.262766404 1544353.3333333 
15741.115394068      1485190 
15898.526548009 1449191.4285714 
16057.511813489      1387570 
16218.086931624      1363775 
16380.26780094      1287970 
16544.07047895      1293165 
16709.511183739      1192140 
16876.606295577      1200900 
17045.372358532      1164415 
17215.826082118      1067095 
17387.984342939      1059060 
17561.864186368      1038940 
17737.482828232      1010345 
17914.857656514       965603 
18094.006233079     879147.5 
18274.94629541     891146.5 
18457.695758364       865762 
18642.272715948     793375.5 
18828.695443107     799393.5 
19016.982397539     780485.5 
19207.152221514       744425 
19399.223743729       682852 
19593.215981166       694895 
19789.148140978       671889 
19987.039622388     648566.5 
20186.910018612     623865.5 
20388.779118798     603119.5 
20592.666909986       580668 
20798.593579086       560522 
21006.579514877       541208 
21216.645310025       522195 
21428.811763126     501317.5 
21643.099880757 464370.66666667 
21859.530879564       463160 
22078.12618836     448312.5 
22298.907450244     433832.5 
22521.896524746     418958.5 
22747.115489993 402453.66666667 
22974.586644893     386799.5 
23204.332511342     374490.5 
23436.375836456       360081 
23670.73959482       345715 
23907.446990769     335361.5 
24146.521460676 322443.66666667 
24387.986675283       310045 
24631.866542036 298298.33333333 
24878.185207456       287521 
25126.967059531 276987.66666667 
25378.236730126       266795 
25632.019097427 256718.66666667 
25888.339288402       247538 
26147.222681286 230241.33333333 
26408.694908098       228543 
26672.781857179     219631.5 
26939.509675751 214344.66666667 
27208.904772509 205367.66666667 
27480.993820234 194821.33333333 
27755.803758436       190779 
28033.361796021 184503.33333333 
28313.695413981 176989.33333333 
28596.832368121 167210.66666667 
28882.800691802       163613 
29171.62869872 157410.66666667 
29463.344985707       151497 
29757.978435564 145769.33333333 
30055.55821992 138366.33333333 
30356.113802119 133880.66666667 
30659.67494014 130191.33333333 
30966.271689541 125359.33333333 
31275.934406437       120939 
31588.693750501 116687.33333333 
31904.580688006     112707.4 
32223.626494886     108018.5 
32545.862759835       104124 
32871.321387434      98505.8 
33200.034601308      96036.4 
33532.034947321      92851.4 
33867.355296794     89758.95 
34206.028849762     85954.55 
34548.08913826      83137.2 
34893.570029642     80464.75 
35242.505729939     77025.35 
35594.930787238      73758.7 
35950.880095111      70705.9 
36310.388896062      68432.1 
36673.492785022      66246.5 
37040.227712872      63026.7 
37410.629990001      60252.9 
37784.736289901      58594.3 
38162.5836528     56332.05 
38544.209489328      54109.4 
38929.651584221     51984.15 
39318.948100064     50049.45 
39712.137581064     48045.95 
40109.258956875      45531.3 
40510.351546444      44541.2 
40915.455061908      42971.5 
41324.609612527     41232.25 
41737.855708653      39838.1 
42155.234265739      38467.4 
42576.786608396      37100.8 
43002.55447448      35786.1 
43432.580019225      34355.3 
43866.905819417 32992.933333333 
44305.574877612      31638.9 
44748.630626388     30572.85 
45196.116932652     29544.85 
45648.078101978 28314.866666667 
46104.558882998      26712.8 
46565.604471828     26001.85 
47031.260516546 25206.733333333 
47501.573121712     24201.35 
47976.588852929      23432.4 
48456.354741458 22514.233333333 
48940.918288873      21636.6 
49430.327471761 20804.833333333 
49924.630746479     20011.05 
50423.877053944 19256.866666667 
50928.115824483     18343.65 
51437.396982728      17842.9 
51951.770952555      17192.1 
52471.288662081      16570.8 
52996.001548702      15857.2 
53525.961564189      15287.2 
54061.221179831 14750.333333333 
54601.833391629 14130.466666667 
55147.851725545     13641.75 
55699.330242801 13172.866666667 
56256.323545229 12638.433333333 
56818.886780681      12125.4 
57387.075648488 11645.166666667 
57960.946404973 11185.766666667 
58540.555869022 10663.833333333 
59125.961427713 10313.233333333 
59717.22104199      9935.87 
60314.39325241 9557.8033333333 
60917.537184934      9196.87 
61526.712556783      8855.86 
62141.979682351      8525.01 
62763.399479174 8199.2533333333 
63391.033473966      7917.75 
64024.943808706 7573.9242857143 
64665.193246793      7315.27 
65311.845179261     7059.585 
65964.963631053      6732.87 
66624.613267364      6499.26 
67290.859400038      6262.41 
67963.767994038      5994.95 
68643.405673978      5793.07 
69329.839730718     5600.545 
70023.138128025     5355.145 
70723.369509305      5124.11 
71430.603204399      4957.91 
72144.909236443         4799 
72866.358328807     4597.045 
73595.021912095      4405.45 
74330.972131216      4159.29 
75074.281852528      4049.76 
75825.024671053       3927.4 
76583.274917764      3808.88 
77349.107666942     3657.225 
78122.598743611      3513.07 
78903.824731047     3375.905 
79692.862978358      3245.36 
80489.791608141     3120.975 
81294.689524223      3001.86 
82107.636419465      2889.86 
82928.712783659      2782.17 
83757.999911496     2679.555 
84595.579910611 2558.1666666667 
85441.535709717      2443.06 
86295.951066814     2354.595 
87158.910577482     2263.115 
88030.499683257      2192.49 
88910.80468009      2116.17 
89799.912726891 2025.5933333333 
90697.91185416     1939.415 
91604.890972701     1874.055 
92520.939882428 1796.1666666667 
93446.149281253      1719.93 
94380.610774065     1665.505 
95324.416881806      1598.18 
96277.661050624     1534.105 
97240.43766113      1473.29 
98212.842037741      1415.39 
99194.970458119     1371.115 
100186.9201627         1339 
199060.83304441      86.7168 
399467.9878358      5.44963 
594753.39981818      1.07222 
793700.71765891     0.337563 
997811.18987739     0.137582 
1193529.3359837    0.0660482 
1399507.0114645    0.0355011 
