#  WAVELENGTH	        FLUX	
#  (ANGSTROM)	(ERG/CM2/S/A)	
############	############	
392.46942519626   5.0283E-24 
404.36164124913  3.13901E-23 
412.48931023824  1.50702E-22 
420.78034537403  5.72445E-22 
429.23803031605  2.06315E-21 
437.8657147254  1.10971E-20 
446.66681559138   4.7467E-20 
455.64481858477  1.65797E-19 
469.4513122327  6.27004E-19 
478.88728360858  2.23422E-18 
488.51291800911  7.53603E-18 
498.3320276611  2.41077E-17 
503.31534793771  6.27535E-17 
508.34850141708   1.3621E-16 
518.56630629557  3.18047E-16 
528.98948905211  8.89211E-16 
539.62217778206  2.34785E-15 
545.01839955988  6.04451E-15 
555.97326939103  1.49131E-14 
567.14833210579  3.55452E-14 
578.54801358112  8.10879E-14 
584.33349371693  1.83398E-13 
596.07859694064   3.9834E-13 
608.05977673914  8.41715E-13 
614.14037450653  1.73155E-12 
626.48459603412  3.47411E-12 
639.0769364144  6.80838E-12 
645.46770577855  1.30451E-11 
651.92238283633  2.16033E-11 
658.44160666469  3.32095E-11 
671.67628295866  6.03794E-11 
678.39304578824  1.07674E-10 
692.02874600859  1.88496E-10 
698.94903346867  3.23752E-10 
712.99790904139  5.77172E-10 
720.12788813181  9.58844E-10 
734.60245868325   1.49444E-9 
741.94848327009    2.4128E-9 
749.36796810279   3.84082E-9 
764.43026426165     6.032E-9 
772.07456690427   9.34951E-9 
779.79531257331    1.4313E-8 
787.59326569905   2.15485E-8 
803.4238903396   3.23056E-8 
811.45812924299   4.78019E-8 
819.57271053542   6.99134E-8 
827.76843764078   1.01203E-7 
844.40658323736   1.45041E-7 
852.85064906973   2.05885E-7 
861.37915556043   2.89562E-7 
869.99294711603   4.03182E-7 
878.69287658719   5.57767E-7 
887.47980535306   7.64489E-7 
896.3546034066   1.03802E-6 
914.37133093507   0.00176957 
923.51504424442    0.0057842 
932.75019468686   0.00780114 
942.07769663373    0.0108224 
951.49847360007     0.015282 
961.01345833607    0.0205101 
970.62359291943    0.0264865 
980.32982884862    0.0354613 
990.13312713711    0.0455109 
1000.0344584085    0.0616928 
1010.0348029926    0.0797508 
1020.1351510225     0.099699 
1030.3365025327     0.131065 
1040.639867558     0.168124 
1051.0462662336     0.213736 
1061.556728896     0.266253 
1072.1722961849     0.337734 
1082.8940191468     0.424917 
1093.7229593382     0.522793 
1104.6601889316      3.41071 
1115.7067908209      7.68953 
1126.8638587291      10.8823 
1138.1324973164      13.7503 
1149.5138222896      14.8611 
1161.0089605125      19.4813 
1172.6190501176      21.4863 
1184.3452406188      17.3864 
1196.188693025      7.95349 
1208.1505799552      3.04808 
1220.2320857548      9.74799 
1232.4344066123      24.4663 
1244.7587506785      86.5818 
1257.2063381852      142.478 
1269.7784015671      233.275 
1282.4761855828      420.041 
1295.3009474386       456.14 
1308.253956913      708.961 
1321.3364964821      887.931 
1334.5498614469     1176.565 
1347.8953600614      1415.55 
1361.374313662      1647.14 
1374.9880567986     1953.365 
1388.7379373666      2426.26 
1402.6253167403      2862.64 
1416.6515699077      3355.22 
1430.8180856068 3743.1241176471 
1445.1262664628 4690.9646153846 
1459.5775291275      5070.75 
1474.1733044187      6041.06 
1488.9150374629      7290.62 
1503.8041878376 8404.9381818182 
1518.8422297159      10093.2 
1534.0306520131      18836.9 
1549.3709585332      23391.9 
1564.8646681186        25383 
1580.5133147997     35339.35 
1596.3184479477      38750.6 
1612.2816324272      42339.2 
1628.4044487515        60431 
1644.688493239     77011.75 
1661.1353781714 133684.10454545 
1677.7467319531       498654 
1694.5241992726     814218.5 
1711.4694412654      1653070 
1728.584135678      2116985 
1745.8699770348      2624610 
1763.3286768051      2208465 
1780.9619635732      2930645 
1798.7715832089      2902470 
1816.759299041      2620440 
1834.9268920314      2495720 
1853.2761609517      3049780 
1871.8089225613      3222365 
1890.5270117869      3567905 
1909.4322819047      3542930 
1928.5266047238      3112280 
1947.811870771      4601670 
1967.2899894787 4642055.2941176 
1986.9628893735 4368651.9047619 
2006.8325182673      3876030 
2026.9008434499      4799635 
2047.1698518844      4515145 
2067.6415504033    5806913.5 
2088.3179659073      5373105 
2109.2011455664      5499800 
2130.293157022      4866335 
2151.5960885923      5245470 
2173.1120494782      5234690 
2194.843169973 5542703.3333333 
2216.7916016727      5401930 
2238.9595176894      5056780 
2261.3491128663      5067015 
2283.962603995 5526233.3333333 
2306.8022300349      5248015 
2329.8702523353      3252610 
2353.1689548586      3854490 
2376.7006444072      2536855 
2400.4676508513      3126910 
2424.4723273598      5321280 
2448.7170506334      5587425 
2473.2042211397      4908380 
2497.9362633511 5547794.3478261 
2522.9156259846 4052297.7777778 
2548.1447822445      4796575 
2573.6262300669 4988126.6666667 
2599.3624923676 4277946.6666667 
2625.3561172913      7050745 
2651.6096784642 7651513.3333333 
2678.1257752488      7212915 
2704.9070330013 6749776.6666667 
2731.9561033313      5587190 
2759.2756643647 6364033.3333333 
2786.8684210083      2421235 
2814.7371052184 7998873.3333333 
2842.8844762706 7606873.3333333 
2871.3133210333 8080316.6666667 
2900.0264542436      9468850 
2929.026718786      8903835 
2958.3169859739      9456590 
2987.9001558336      9708750 
3017.779157392      9813740 
3047.9569489659      9985935 
3078.4365184556     10410100 
3109.2208836401     10032175 
3140.3130924765     10489400 
3171.7162234013      9708780 
3203.4333856353      9921845 
3235.4677194916     10298400 
3267.8223966866     10752850 
3300.5006206534     10986350 
3333.50562686     10747900 
3366.8406831286     10651350 
3400.5090899598     11023200 
3434.5141808594     11098900 
3468.859322668     10938750 
3503.5479158947     11251450 
3538.5833950537     11407750 
3573.9692290042     11041700 
3609.7089212942     11257200 
3645.8060105072     11679000 
3682.2640706123     12765300 
3719.0867113184     18014400 
3756.2775784316     23642800 
3793.8403542159     26166050 
3831.778757758     31728500 
3870.0965453356     22667400 
3908.797510789     28003600 
3947.8854858969     25264750 
3987.3643407558     33208500 
4027.2379841634     33658300 
4067.510364005     31248300 
4108.1854676451     28219050 
4149.2673223215 32729733.333333 
4190.7599955447     31944950 
4232.6675955002     31504700 
4274.9942714552     30066350 
4317.7442141697     24653400 
4360.9216563114     30310650 
4404.5308728746     29588500 
4448.5761816033 29570966.666667 
4493.0619434193     29511850 
4537.9925628535     29004100 
4583.3724884821     28723350 
4629.2062133669     28420900 
4675.4982755006     27318550 
4722.2532582556     27773950 
4769.4757908381     27111900 
4817.1705487465     24484000 
4865.342254234 23141966.666667 
4913.9956767763     25234800 
4963.1356335441 24667666.666667 
5012.7669898795     24353800 
5062.8946597783     24171500 
5113.5236063761     23297900 
5164.6588424398 22536966.666667 
5216.3054308642     22550200 
5268.4684851729     21921200 
5321.1531700246 21612166.666667 
5374.3647017249     21208500 
5428.1083487421     21024200 
5482.3894322295 20664066.666667 
5537.2133265518 20235566.666667 
5592.5854598173     19934150 
5648.5113144155     19538300 
5704.9964275597 19251966.666667 
5762.0463918353 18867266.666667 
5819.6668557536 18461033.333333 
5877.8635243112 17972033.333333 
5936.6421595543     17673500 
5996.0085811498 17250066.666667 
6055.9686669613 16913566.666667 
6116.5283536309 16312733.333333 
6177.6936371672 16180833.333333 
6239.4705735389 15760833.333333 
6301.8652792743 15450366.666667 
6364.883932067 15125833.333333 
6428.5327713877     14698125 
6492.8180991016 13940066.666667 
6557.7462800926 12815966.666667 
6623.3237428935 13869466.666667 
6689.5569803225     13564800 
6756.4525501257     13262300 
6824.0170756269     12940950 
6892.2572463832 12647666.666667 
6961.179818847     12332125 
7030.7916170355     12066300 
7101.0995332059     11719550 
7172.1105285379 11459666.666667 
7243.8316338233     11213850 
7316.2699501615 10979566.666667 
7389.4326496631     10682575 
7463.3269761598     10421250 
7537.9602459214     10203225 
7613.3398483806 9955023.3333333 
7689.4732468644      9732980 
7766.367979333    9472057.5 
7844.0316591264      9243285 
7922.4719757176      9013140 
8001.6966954748    8810277.5 
8081.7136624296      8609065 
8162.5307990539      8353785 
8244.1561070444    8193942.5 
8326.5976681148    7954792.5 
8409.863644796      7731046 
8493.9622812439    7381082.5 
8578.9019040564      7553985 
8664.6909230969      7210880 
8751.3378323279      7588115 
8838.8512106512      7071310 
8927.2397227577      7110674 
9016.5121199853      6943215 
9106.6772411851      6993696 
9197.744013597      6316350 
9289.721453733      6676354 
9382.6186682703      6443438 
9476.444854953      5966140 
9571.2093035025    6095632.5 
9666.9213965375      5972080 
9763.5906105029      5832996 
9861.226516608      5655652 
9959.838781774 5414108.6666667 
10059.437169592      5171270 
10160.031541288      5236105 
10261.631856701      5098240 
10364.248175268      4968205 
10467.89065702      4808025 
10572.56956359 4642486.6666667 
10678.295259226      4496720 
10785.078211819      4369460 
10892.928993937      4017895 
11001.858283876      4187830 
11111.876866715      4081720 
11222.995635382 3932676.6666667 
11335.225591736      3814260 
11448.577847653      3746865 
11563.06362613 3599736.6666667 
11678.694262391      3494295 
11795.481205015      3398060 
11913.436017065      3321070 
12032.570377236      3219935 
12152.896081008      3156620 
12274.425041818      3059670 
12397.169292236      2976670 
12521.140985159 2879133.3333333 
12646.35239501      2803990 
12772.81591896 2599816.6666667 
12900.54407815 2632176.6666667 
13029.549518932      2560290 
13159.845014121      2486570 
13291.443464262      2420580 
13424.357898905 2352786.6666667 
13558.601477894 2273306.6666667 
13694.187492673 2190753.3333333 
13831.129367599      2140200 
13969.440661275      2082790 
14109.135067888 2014263.3333333 
14250.226418567 1950366.6666667 
14392.728682753 1872793.3333333 
14536.65596958      1826774 
14682.022529276 1766253.3333333 
14828.842754569 1713983.3333333 
14977.131182115      1656310 
15126.902493936 1608343.3333333 
15278.171518875 1548526.6666667 
15430.953234064 1502906.6666667 
15585.262766404 1457683.3333333 
15741.115394068      1408860 
15898.526548009 1404214.2857143 
16057.511813489      1299640 
16218.086931624      1330395 
16380.26780094      1217350 
16544.07047895      1263515 
16709.511183739      1155595 
16876.606295577      1173020 
17045.372358532      1135585 
17215.826082118    1040445.5 
17387.984342939      1034895 
17561.864186368      1008720 
17737.482828232       980810 
17914.857656514     941968.5 
18094.006233079     865433.5 
18274.94629541       869899 
18457.695758364       843526 
18642.272715948       785958 
18828.695443107       782416 
19016.982397539       760407 
19207.152221514       729124 
19399.223743729       675425 
19593.215981166       677576 
19789.148140978     653889.5 
19987.039622388     630965.5 
20186.910018612     607457.5 
20388.779118798     586888.5 
20592.666909986     565405.5 
20798.593579086     545931.5 
21006.579514877       526530 
21216.645310025       508148 
21428.811763126       491063 
21643.099880757 458626.66666667 
21859.530879564       451619 
22078.12618836       436558 
22298.907450244       422862 
22521.896524746       408170 
22747.115489993 392512.33333333 
22974.586644893       377364 
23204.332511342     365592.5 
23436.375836456 351515.66666667 
23670.73959482     337726.5 
23907.446990769     327280.5 
24146.521460676 314688.33333333 
24387.986675283     302670.5 
24631.866542036       291547 
24878.185207456       279777 
25126.967059531 269977.33333333 
25378.236730126       262584 
25632.019097427 250144.33333333 
25888.339288402       244082 
26147.222681286 226838.66666667 
26408.694908098 226182.66666667 
26672.781857179     212421.5 
26939.509675751 211980.33333333 
27208.904772509       203225 
27480.993820234 190540.33333333 
27755.803758436       188693 
28033.361796021 182452.33333333 
28313.695413981 175214.66666667 
28596.832368121 164380.33333333 
28882.800691802 161884.33333333 
29171.62869872 155754.33333333 
29463.344985707       149910 
29757.978435564 144267.66666667 
30055.55821992 136745.66666667 
30356.113802119 132734.33333333 
30659.67494014 128852.33333333 
30966.271689541 124084.66666667 
31275.934406437       119729 
31588.693750501 115558.66666667 
31904.580688006       111645 
32223.626494886       107021 
32545.862759835       103275 
32871.321387434     97674.65 
33200.034601308      95052.5 
33532.034947321      91786.9 
33867.355296794        88781 
34206.028849762     85034.35 
34548.08913826      82280.1 
34893.570029642     79643.65 
35242.505729939     76248.45 
35594.930787238     73045.45 
35950.880095111     70016.85 
36310.388896062      67665.9 
36673.492785022     65613.15 
37040.227712872     62736.25 
37410.629990001      59772.5 
37784.736289901     58055.25 
38162.5836528     55908.45 
38544.209489328     53831.75 
38929.651584221     51360.75 
39318.948100064      49870.6 
39712.137581064      47712.4 
40109.258956875      45178.6 
40510.351546444     44422.65 
40915.455061908     42840.65 
41324.609612527     40721.25 
41737.855708653      39719.4 
42155.234265739     38354.25 
42576.786608396     36993.95 
43002.55447448      35685.2 
43432.580019225     34019.55 
43866.905819417 32902.433333333 
44305.574877612     31562.15 
44748.630626388     30478.85 
45196.116932652      29457.1 
45648.078101978 28231.966666667 
46104.558882998     26693.35 
46565.604471828     25800.85 
47031.260516546 25151.633333333 
47501.573121712     24160.95 
47976.588852929      23400.8 
48456.354741458 22476.666666667 
48940.918288873     21600.85 
49430.327471761 20775.833333333 
49924.630746479     19972.25 
50423.877053944 19223.333333333 
50928.115824483      18249.1 
51437.396982728 17804.833333333 
51951.770952555      17184.5 
52471.288662081        16530 
52996.001548702      15850.1 
53525.961564189     15218.25 
54061.221179831 14744.366666667 
54601.833391629 14118.833333333 
55147.851725545      13567.9 
55699.330242801 13166.033333333 
56256.323545229 12633.733333333 
56818.886780681      12062.6 
57387.075648488      11641.4 
57960.946404973 11185.333333333 
58540.555869022 10652.166666667 
59125.961427713 10249.133333333 
59717.22104199 9940.2933333333 
60314.39325241      9562.98 
60917.537184934      9201.64 
61526.712556783 8859.9166666667 
62141.979682351 8528.0133333333 
62763.399479174 8152.6233333333 
63391.033473966 7921.7066666667 
64024.943808706 7577.8842857143 
64665.193246793      7319.52 
65311.845179261     7062.915 
65964.963631053     6735.645 
66624.613267364      6502.62 
67290.859400038      6240.33 
67963.767994038      5995.97 
68643.405673978      5794.96 
69329.839730718     5599.855 
70023.138128025     5357.395 
70723.369509305       5122.6 
71430.603204399      4959.89 
72144.909236443     4795.405 
72866.358328807     4599.085 
73595.021912095      4407.13 
74330.972131216     4145.965 
75074.281852528      4051.11 
75825.024671053      3929.35 
76583.274917764     3810.665 
77349.107666942       3649.9 
78122.598743611      3514.96 
78903.824731047      3377.79 
79692.862978358      3246.99 
80489.791608141     3122.715 
81294.689524223      2993.39 
82107.636419465     2891.525 
82928.712783659     2783.475 
83757.999911496      2680.62 
84595.579910611 2559.5933333333 
85441.535709717       2444.3 
86295.951066814     2345.925 
87158.910577482      2259.53 
88030.499683257       2193.6 
88910.80468009     2117.355 
89799.912726891 2026.6433333333 
90697.91185416      1940.48 
91604.890972701      1875.12 
92520.939882428      1796.73 
93446.149281253      1713.47 
94380.610774065      1666.03 
95324.416881806 1598.5466666667 
96277.661050624     1534.915 
97240.43766113 1473.9233333333 
98212.842037741      1414.88 
99194.970458119     1371.735 
100186.9201627       1339.6 
199060.83304441      86.6292 
399467.9878358      5.43104 
594753.39981818      1.06688 
793700.71765891     0.335501 
997811.18987739     0.136636 
1193529.3359837    0.0655562 
1399507.0114645    0.0352223 
