#  WAVELENGTH	        FLUX	
#  (ANGSTROM)	(ERG/CM2/S/A)	
############	############	
528.98948905211  7.62177E-25 
539.62217778206  2.93051E-24 
545.01839955988  1.08193E-23 
555.97326939103  3.78161E-23 
567.14833210579  1.26145E-22 
578.54801358112  3.98367E-22 
584.33349371693  1.23225E-21 
596.07859694064  3.62446E-21 
608.05977673914  1.02672E-20 
614.14037450653  2.80509E-20 
626.48459603412  7.40733E-20 
639.0769364144   1.8946E-19 
645.46770577855  4.69802E-19 
651.92238283633  9.50954E-19 
658.44160666469    1.736E-18 
671.67628295866  4.00838E-18 
678.39304578824  9.01551E-18 
692.02874600859  1.97715E-17 
698.94903346867  4.22992E-17 
712.99790904139  9.52231E-17 
720.12788813181  1.94463E-16 
734.60245868325  3.63232E-16 
741.94848327009  7.13515E-16 
749.36796810279  1.37467E-15 
764.43026426165  2.59999E-15 
772.07456690427  4.82885E-15 
779.79531257331  8.81753E-15 
787.59326569905  1.57982E-14 
803.4238903396  2.79694E-14 
811.45812924299  4.87163E-14 
819.57271053542  8.35794E-14 
827.76843764078  1.41382E-13 
844.40658323736  2.35912E-13 
852.85064906973  3.88492E-13 
861.37915556043  6.31639E-13 
869.99294711603  1.01403E-12 
878.69287658719  1.60995E-12 
887.47980535306  2.52655E-12 
896.3546034066  3.92045E-12 
914.37133093507   1.90848E-8 
923.51504424442   9.79443E-8 
932.75019468686   1.47473E-7 
942.07769663373    2.0191E-7 
951.49847360007   3.16044E-7 
961.01345833607   5.24544E-7 
970.62359291943   6.11724E-7 
980.32982884862   1.04136E-6 
990.13312713711   1.50643E-6 
1000.0344584085   2.00195E-6 
1010.0348029926   2.59759E-6 
1020.1351510225   3.22304E-6 
1030.3365025327   5.97999E-6 
1040.639867558   8.29891E-6 
1051.0462662336   9.62553E-6 
1061.556728896   1.62048E-5 
1072.1722961849   2.09688E-5 
1082.8940191468   3.09035E-5 
1093.7229593382   3.77382E-5 
1104.6601889316   5.69679E-5 
1115.7067908209   9.62852E-5 
1126.8638587291  0.000141451 
1138.1324973164  0.000190293 
1149.5138222896  0.000242272 
1161.0089605125  0.000303666 
1172.6190501176  0.000404366 
1184.3452406188  0.000506714 
1196.188693025  0.000517139 
1208.1505799552  0.000322085 
1220.2320857548  0.000783022 
1232.4344066123   0.00144487 
1244.7587506785   0.00225981 
1257.2063381852   0.00314174 
1269.7784015671    0.0038377 
1282.4761855828  0.005028885 
1295.3009474386   0.00669146 
1308.253956913   0.00823689 
1321.3364964821   0.00943681 
1334.5498614469    0.0121797 
1347.8953600614     0.016507 
1361.374313662    0.0190136 
1374.9880567986   0.02407825 
1388.7379373666    0.0304517 
1402.6253167403    0.0411783 
1416.6515699077    0.0530804 
1430.8180856068 0.068894452941176 
1445.1262664628 0.084529769230769 
1459.5775291275     0.108396 
1474.1733044187     0.130054 
1488.9150374629      0.17653 
1503.8041878376 0.21858227272727 
1518.8422297159     0.319267 
1534.0306520131     1.046645 
1549.3709585332      1.78501 
1564.8646681186     2.602095 
1580.5133147997     4.444695 
1596.3184479477      5.41209 
1612.2816324272     6.740485 
1628.4044487515      9.51541 
1644.688493239      12.3957 
1661.1353781714 16.813977272727 
1677.7467319531      34.5718 
1694.5241992726     49.85625 
1711.4694412654     62.61135 
1728.584135678     98.79555 
1745.8699770348       139.67 
1763.3286768051     138.2515 
1780.9619635732     208.5015 
1798.7715832089     253.6415 
1816.759299041      296.272 
1834.9268920314      299.555 
1853.2761609517     384.4085 
1871.8089225613      478.407 
1890.5270117869      633.913 
1909.4322819047      760.161 
1928.5266047238      717.234 
1947.811870771 1166.9036363636 
1967.2899894787 1327.1811764706 
1986.9628893735 1427.7485714286 
2006.8325182673     1483.695 
2026.9008434499      1943.49 
2047.1698518844     2216.755 
2067.6415504033    2534.4825 
2088.3179659073       5080.9 
2109.2011455664      8660.18 
2130.293157022     11592.45 
2151.5960885923     10134.07 
2173.1120494782     11211.72 
2194.843169973 13465.733333333 
2216.7916016727     24931.15 
2238.9595176894     24517.95 
2261.3491128663      12637.3 
2283.962603995      21355.1 
2306.8022300349      24487.8 
2329.8702523353      23763.5 
2353.1689548586 24892.566666667 
2376.7006444072     21540.85 
2400.4676508513      26204.1 
2424.4723273598      52429.3 
2448.7170506334     54073.25 
2473.2042211397 23892.366666667 
2497.9362633511 25668.52173913 
2522.9156259846 26310.296296296 
2548.1447822445     66267.35 
2573.6262300669 107961.33333333 
2599.3624923676 93444.666666667 
2625.3561172913       281216 
2651.6096784642 382253.33333333 
2678.1257752488       333491 
2704.9070330013     202077.5 
2731.9561033313 142904.66666667 
2759.2756643647 183469.66666667 
2786.8684210083     68001.45 
2814.7371052184       148980 
2842.8844762706      68429.3 
2871.3133210333 255116.33333333 
2900.0264542436       615360 
2929.026718786       526086 
2958.3169859739       463689 
2987.9001558336     422977.5 
3017.779157392       530819 
3047.9569489659       640911 
3078.4365184556       569351 
3109.2208836401     836254.5 
3140.3130924765     873902.5 
3171.7162234013       812836 
3203.4333856353     801568.5 
3235.4677194916      1195480 
3267.8223966866      1542060 
3300.5006206534      1259200 
3333.50562686      1170730 
3366.8406831286     762009.5 
3400.5090899598     986930.5 
3434.5141808594      1017880 
3468.859322668      1251620 
3503.5479158947      1507180 
3538.5833950537      1422140 
3573.9692290042      1027610 
3609.7089212942      1427632 
3645.8060105072 1962876.6666667 
3682.2640706123      1706970 
3719.0867113184       928296 
3756.2775784316      1733955 
3793.8403542159    1124152.5 
3831.778757758      1125400 
3870.0965453356      1376830 
3908.797510789    1301683.5 
3947.8854858969      1395085 
3987.3643407558      2759110 
4027.2379841634      2634000 
4067.510364005      2752370 
4108.1854676451      2893915 
4149.2673223215 2720546.6666667 
4190.7599955447      2500600 
4232.6675955002      2432865 
4274.9942714552      1979440 
4317.7442141697      2925285 
4360.9216563114      2871770 
4404.5308728746      3183630 
4448.5761816033 3594043.3333333 
4493.0619434193      3950025 
4537.9925628535      4071465 
4583.3724884821      4040120 
4629.2062133669 4151786.6666667 
4675.4982755006      4121055 
4722.2532582556      4179045 
4769.4757908381 4197556.6666667 
4817.1705487465      4203420 
4865.342254234      3982710 
4913.9956767763      3983985 
4963.1356335441 3857926.6666667 
5012.7669898795      3792210 
5062.8946597783 3745496.6666667 
5113.5236063761      3509805 
5164.6588424398      3050630 
5216.3054308642      4058905 
5268.4684851729      4024310 
5321.1531700246 4056473.3333333 
5374.3647017249      4027560 
5428.1083487421 4098453.3333333 
5482.3894322295 4184143.3333333 
5537.2133265518 4139146.6666667 
5592.5854598173      4197005 
5648.5113144155 4222846.6666667 
5704.9964275597      4227210 
5762.0463918353      4230360 
5819.6668557536 4235736.6666667 
5877.8635243112 3941713.3333333 
5936.6421595543 4183743.3333333 
5996.0085811498 4140573.3333333 
6055.9686669613 4097333.3333333 
6116.5283536309 3891246.6666667 
6177.6936371672      4002450 
6239.4705735389      3944920 
6301.8652792743 3924833.3333333 
6364.883932067 3910143.3333333 
6428.5327713877    3813107.5 
6492.8180991016 3857406.6666667 
6557.7462800926 3749733.3333333 
6623.3237428935 3802976.6666667 
6689.5569803225      3773715 
6756.4525501257 3735963.3333333 
6824.0170756269      3694095 
6892.2572463832 3652053.3333333 
6961.179818847      3602210 
7030.7916170355 3566866.6666667 
7101.0995332059    3500437.5 
7172.1105285379 3434833.3333333 
7243.8316338233      3429940 
7316.2699501615      3391980 
7389.4326496631    3326377.5 
7463.3269761598      3312115 
7537.9602459214    3279347.5 
7613.3398483806      3220370 
7689.4732468644    3188617.5 
7766.367979333    3170017.5 
7844.0316591264      3122795 
7922.4719757176      3053565 
8001.6966954748      3020055 
8081.7136624296      2980135 
8162.5307990539    2901187.5 
8244.1561070444    2903062.5 
8326.5976681148    2818707.5 
8409.863644796      2791384 
8493.9622812439    2621677.5 
8578.9019040564    2719152.5 
8664.6909230969      2595714 
8751.3378323279    2615697.5 
8838.8512106512      2612220 
8927.2397227577      2556070 
9016.5121199853      2530115 
9106.6772411851      2482194 
9197.744013597      2416610 
9289.721453733      2399932 
9382.6186682703      2341868 
9476.444854953      2318386 
9571.2093035025      2280900 
9666.9213965375      2243154 
9763.5906105029      2213902 
9861.226516608      2184252 
9959.838781774 2156002.6666667 
10059.437169592      2115005 
10160.031541288      2076620 
10261.631856701      2043180 
10364.248175268      2009480 
10467.89065702      1978125 
10572.56956359 1926546.6666667 
10678.295259226      1886370 
10785.078211819      1833715 
10892.928993937      1803160 
11001.858283876      1777565 
11111.876866715      1752270 
11222.995635382 1718856.6666667 
11335.225591736      1676885 
11448.577847653      1673250 
11563.06362613      1628050 
11678.694262391      1607720 
11795.481205015      1561485 
11913.436017065 1539166.6666667 
12032.570377236      1514500 
12152.896081008      1512545 
12274.425041818 1482163.3333333 
12397.169292236      1456175 
12521.140985159      1431370 
12646.35239501      1405320 
12772.81591896      1373960 
12900.54407815      1352180 
13029.549518932      1324885 
13159.845014121 1303316.6666667 
13291.443464262      1285260 
13424.357898905 1271366.6666667 
13558.601477894      1240510 
13694.187492673      1223850 
13831.129367599      1202660 
13969.440661275      1183690 
14109.135067888 1155063.3333333 
14250.226418567      1132480 
14392.728682753 1112283.3333333 
14536.65596958      1097050 
14682.022529276 1075043.3333333 
14828.842754569 1052233.3333333 
14977.131182115 1017479.3333333 
15126.902493936      1028870 
15278.171518875 1015236.6666667 
15430.953234064       998190 
15585.262766404 976854.66666667 
15741.115394068 934905.66666667 
15898.526548009 937681.85714286 
16057.511813489       915137 
16218.086931624       898964 
16380.26780094       872654 
16544.07047895       855696 
16709.511183739       813379 
16876.606295577       801000 
17045.372358532       767452 
17215.826082118     736014.5 
17387.984342939     712930.5 
17561.864186368       693957 
17737.482828232       674548 
17914.857656514     649152.5 
18094.006233079       620425 
18274.94629541     596507.5 
18457.695758364       582916 
18642.272715948       556884 
18828.695443107       539971 
19016.982397539     525450.5 
19207.152221514     504760.5 
19399.223743729     482045.5 
19593.215981166     467493.5 
19789.148140978       452066 
19987.039622388       440912 
20186.910018612       423016 
20388.779118798       410816 
20592.666909986     394303.5 
20798.593579086       381321 
21006.579514877     369674.5 
21216.645310025       357739 
21428.811763126       346578 
21643.099880757       329328 
21859.530879564     316916.5 
22078.12618836     308324.5 
22298.907450244     298181.5 
22521.896524746       288411 
22747.115489993       275395 
22974.586644893       264896 
23204.332511342       251781 
23436.375836456       243752 
23670.73959482     233134.5 
23907.446990769       228648 
24146.521460676       218471 
24387.986675283     209461.5 
24631.866542036 202403.66666667 
24878.185207456     197211.5 
25126.967059531 189540.66666667 
25378.236730126     182766.5 
25632.019097427       176752 
25888.339288402     171496.5 
26147.222681286 164426.33333333 
26408.694908098       157710 
26672.781857179       154028 
26939.509675751       148855 
27208.904772509 143105.33333333 
27480.993820234 137388.66666667 
27755.803758436       132958 
28033.361796021 128647.33333333 
28313.695413981 123848.66666667 
28596.832368121       119057 
28882.800691802       114664 
29171.62869872       109977 
29463.344985707       106125 
29757.978435564       102175 
30055.55821992 98472.933333333 
30356.113802119 94785.466666667 
30659.67494014 91400.433333333 
30966.271689541 88020.966666667 
31275.934406437 84907.133333333 
31588.693750501      82043.6 
31904.580688006     79372.26 
32223.626494886     76000.85 
32545.862759835      73475.8 
32871.321387434     70738.25 
33200.034601308      67611.6 
33532.034947321      65570.9 
33867.355296794      63106.9 
34206.028849762     60611.15 
34548.08913826      58704.8 
34893.570029642      56818.9 
35242.505729939     54374.85 
35594.930787238      52026.3 
35950.880095111      50006.3 
36310.388896062        48352 
36673.492785022     46747.55 
37040.227712872     44888.05 
37410.629990001      43087.8 
37784.736289901     41486.65 
38162.5836528     39907.45 
38544.209489328      38311.8 
38929.651584221     36890.35 
39318.948100064      35474.9 
39712.137581064     34049.35 
40109.258956875     32780.05 
40510.351546444     31619.25 
40915.455061908      30486.8 
41324.609612527      29366.8 
41737.855708653      28183.7 
42155.234265739      27314.6 
42576.786608396     26088.75 
43002.55447448     24636.05 
43432.580019225     23289.15 
43866.905819417      22019.1 
44305.574877612     20841.35 
44748.630626388      20165.7 
45196.116932652     19304.95 
45648.078101978      18599.2 
46104.558882998     17919.45 
46565.604471828     17469.25 
47031.260516546      16862.5 
47501.573121712     16239.75 
47976.588852929      15748.2 
48456.354741458 15182.466666667 
48940.918288873     14624.65 
49430.327471761 14082.033333333 
49924.630746479      13555.7 
50423.877053944      13077.3 
50928.115824483      12614.5 
51437.396982728 12195.933333333 
51951.770952555      11753.3 
52471.288662081      11376.2 
52996.001548702 10908.433333333 
53525.961564189     10559.55 
54061.221179831      10190.5 
54601.833391629 9795.2466666667 
55147.851725545      9491.76 
55699.330242801      9186.52 
56256.323545229 8835.2733333333 
56818.886780681      8496.73 
57387.075648488 8185.3233333333 
57960.946404973 7875.3466666667 
58540.555869022 7577.0766666667 
59125.961427713 7300.9733333333 
59717.22104199      7037.14 
60314.39325241       6769.9 
60917.537184934 6521.9766666667 
61526.712556783 6294.8033333333 
62141.979682351      6055.84 
62763.399479174 5847.5033333333 
63391.033473966       5638.4 
64024.943808706      5397.89 
64665.193246793      5212.43 
65311.845179261      5036.72 
65964.963631053     4805.165 
66624.613267364      4639.95 
67290.859400038       4481.4 
67963.767994038      4281.89 
68643.405673978      4137.86 
69329.839730718     4000.865 
70023.138128025     3825.695 
70723.369509305       3662.1 
71430.603204399      3543.43 
72144.909236443      3430.54 
72866.358328807      3286.28 
73595.021912095     3149.575 
74330.972131216     3018.375 
75074.281852528     2896.825 
75825.024671053      2808.33 
76583.274917764      2723.42 
77349.107666942      2615.25 
78122.598743611     2512.135 
78903.824731047     2414.155 
79692.862978358       2320.7 
80489.791608141     2231.805 
81294.689524223      2147.23 
82107.636419465     2067.345 
82928.712783659      1990.23 
83757.999911496      1916.91 
84595.579910611      1830.25 
85441.535709717      1747.99 
86295.951066814      1685.64 
87158.910577482     1625.955 
88030.499683257      1568.55 
88910.80468009     1514.095 
89799.912726891 1449.4833333333 
90697.91185416     1387.515 
91604.890972701     1341.055 
92520.939882428 1285.3533333333 
93446.149281253     1232.385 
94380.610774065      1191.82 
95324.416881806       1143.9 
96277.661050624     1097.545 
97240.43766113 1054.0633333333 
98212.842037741      1012.94 
99194.970458119     981.2165 
100186.9201627      958.856 
199060.83304441       62.329 
399467.9878358      3.93613 
594753.39981818     0.776064 
793700.71765891     0.244504 
997811.18987739    0.0996678 
1193529.3359837     0.047837 
1399507.0114645    0.0257041 
