#  WAVELENGTH	        FLUX	
#  (ANGSTROM)	(ERG/CM2/S/A)	
############	############	
263.60332133982  6.34963E-23 
266.23935455322  2.53032E-22 
271.59076557974  1.04278E-21 
277.04973996789  4.05283E-21 
282.61843974125  1.70373E-20 
288.29907038004  7.68287E-20 
294.09388169468  3.26075E-19 
300.00516871675  1.04427E-18 
306.03527260795  5.00737E-18 
315.30844740325  4.18106E-17 
324.86260866801  3.07491E-16 
334.70627057326  2.01107E-15 
344.8482052779   1.1821E-14 
355.29745074603  5.34551E-14 
362.43892950602  2.24706E-13 
373.42119150899  8.80442E-13 
384.7362270329  3.72345E-12 
392.46942519626  1.46146E-11 
404.36164124913  5.35702E-11 
412.48931023824  1.63341E-10 
420.78034537403  4.22438E-10 
429.23803031605   1.05307E-9 
437.8657147254   3.49978E-9 
446.66681559138   9.89273E-9 
455.64481858477   2.42257E-8 
469.4513122327   6.28521E-8 
478.88728360858   1.56461E-7 
488.51291800911   3.74878E-7 
498.3320276611   8.65998E-7 
503.31534793771   1.53879E-6 
508.34850141708    2.5582E-6 
518.56630629557    4.6931E-6 
528.98948905211   9.78025E-6 
539.62217778206    1.9715E-5 
545.01839955988    3.8896E-5 
555.97326939103   7.46624E-5 
567.14833210579  0.000139909 
578.54801358112  0.000255704 
584.33349371693  0.000459489 
596.07859694064  0.000807206 
608.05977673914   0.00139079 
614.14037450653   0.00235192 
626.48459603412   0.00390797 
639.0769364144   0.00638675 
645.46770577855    0.0102729 
651.92238283633    0.0148599 
658.44160666469    0.0203663 
671.67628295866     0.031563 
678.39304578824    0.0482354 
692.02874600859    0.0727776 
698.94903346867     0.108466 
712.99790904139     0.165961 
720.12788813181     0.241344 
734.60245868325     0.334814 
741.94848327009     0.476913 
749.36796810279     0.672533 
764.43026426165     0.939469 
772.07456690427          1.3 
779.79531257331      1.78276 
787.59326569905      2.42278 
803.4238903396      3.26651 
811.45812924299      4.36837 
819.57271053542      5.79853 
827.76843764078      7.63862 
844.40658323736      9.99196 
852.85064906973      12.9785 
861.37915556043      16.7448 
869.99294711603      21.4654 
878.69287658719      27.3535 
887.47980535306      34.6458 
896.3546034066      43.6207 
914.37133093507      298.635 
923.51504424442       2101.9 
932.75019468686      3700.28 
942.07769663373       6675.9 
951.49847360007      9947.14 
961.01345833607      13292.8 
970.62359291943      10297.8 
980.32982884862      19616.1 
990.13312713711      21950.3 
1000.0344584085      26803.9 
1010.0348029926      28579.9 
1020.1351510225      18018.5 
1030.3365025327      35906.7 
1040.639867558      45527.4 
1051.0462662336      52253.5 
1061.556728896      57461.5 
1072.1722961849      66969.4 
1082.8940191468      75312.4 
1093.7229593382      81782.5 
1104.6601889316    4483958.5 
1115.7067908209     13563900 
1126.8638587291     17571000 
1138.1324973164     14585900 
1149.5138222896     13389200 
1161.0089605125      9988220 
1172.6190501176      4154700 
1184.3452406188       950271 
1196.188693025       192796 
1208.1505799552      53696.4 
1220.2320857548       202607 
1232.4344066123       424494 
1244.7587506785      4288335 
1257.2063381852     16512800 
1269.7784015671     38733800 
1282.4761855828     72027250 
1295.3009474386     55205900 
1308.253956913     91965500 
1321.3364964821    106561000 
1334.5498614469    118354000 
1347.8953600614    119066000 
1361.374313662    110440000 
1374.9880567986    111872000 
1388.7379373666    109827000 
1402.6253167403    128730000 
1416.6515699077    141741000 
1430.8180856068 134824823.52941 
1445.1262664628 153649769.23077 
1459.5775291275    142205000 
1474.1733044187    139565500 
1488.9150374629    150503000 
1503.8041878376    149260000 
1518.8422297159    143555000 
1534.0306520131    147527500 
1549.3709585332    129751000 
1564.8646681186    122916000 
1580.5133147997    149835500 
1596.3184479477    146479000 
1612.2816324272    139681500 
1628.4044487515    137548000 
1644.688493239    135347500 
1661.1353781714 134722818.18182 
1677.7467319531    148982000 
1694.5241992726    134611000 
1711.4694412654    134537500 
1728.584135678    137290500 
1745.8699770348    143988000 
1763.3286768051    133169500 
1780.9619635732    141916000 
1798.7715832089    138575000 
1816.759299041    132487000 
1834.9268920314    126134500 
1853.2761609517    126995000 
1871.8089225613    130855500 
1890.5270117869    126285000 
1909.4322819047    127183500 
1928.5266047238    126728500 
1947.811870771 128792363.63636 
1967.2899894787 125422705.88235 
1986.9628893735 120473333.33333 
2006.8325182673    114947000 
2026.9008434499    118578000 
2047.1698518844    114292500 
2067.6415504033    117837500 
2088.3179659073    113586000 
2109.2011455664    112530000 
2130.293157022    105481500 
2151.5960885923    106959000 
2173.1120494782    103417000 
2194.843169973    102975000 
2216.7916016727    100314050 
2238.9595176894     95326500 
2261.3491128663     96527600 
2283.962603995 96889833.333333 
2306.8022300349     92435750 
2329.8702523353     86878500 
2353.1689548586 87594366.666667 
2376.7006444072     82227700 
2400.4676508513     82541550 
2424.4723273598 84958266.666667 
2448.7170506334     83454300 
2473.2042211397 81692433.333333 
2497.9362633511 83768591.304348 
2522.9156259846 76499922.222222 
2548.1447822445     80024650 
2573.6262300669 83535566.666667 
2599.3624923676     80478900 
2625.3561172913     84739500 
2651.6096784642     84106600 
2678.1257752488     82646900 
2704.9070330013 79953033.333333 
2731.9561033313 77482566.666667 
2759.2756643647 78661966.666667 
2786.8684210083     69468800 
2814.7371052184 79839533.333333 
2842.8844762706     75875700 
2871.3133210333 76064733.333333 
2900.0264542436     79567000 
2929.026718786     76603100 
2958.3169859739     76448900 
2987.9001558336     76517650 
3017.779157392     76110100 
3047.9569489659     74822500 
3078.4365184556     74477100 
3109.2208836401     72995150 
3140.3130924765     72439750 
3171.7162234013     70106800 
3203.4333856353     70126700 
3235.4677194916     69653800 
3267.8223966866     69600150 
3300.5006206534     68732800 
3333.50562686     67071400 
3366.8406831286     66581700 
3400.5090899598     66319350 
3434.5141808594     65629100 
3468.859322668     64747200 
3503.5479158947     64317650 
3538.5833950537     63382700 
3573.9692290042     62551100 
3609.7089212942     61836040 
3645.8060105072 61797633.333333 
3682.2640706123     59620800 
3719.0867113184     63596450 
3756.2775784316     81341750 
3793.8403542159     95751700 
3831.778757758    129556000 
3870.0965453356     72502400 
3908.797510789    145389500 
3947.8854858969    104101600 
3987.3643407558    141524500 
4027.2379841634    152195500 
4067.510364005    121706000 
4108.1854676451    104068950 
4149.2673223215    140444000 
4190.7599955447    136645500 
4232.6675955002    132267000 
4274.9942714552    123325500 
4317.7442141697     76327650 
4360.9216563114    115679500 
4404.5308728746    118852500 
4448.5761816033    115799000 
4493.0619434193    112477500 
4537.9925628535    109370500 
4583.3724884821    107067000 
4629.2062133669    103837000 
4675.4982755006     99495100 
4722.2532582556     97932450 
4769.4757908381     93767400 
4817.1705487465     74097150 
4865.342254234 71893333.333333 
4913.9956767763     85590300 
4963.1356335441     83824000 
5012.7669898795     81457650 
5062.8946597783 79372466.666667 
5113.5236063761     77017850 
5164.6588424398     74374700 
5216.3054308642     72533000 
5268.4684851729 70439133.333333 
5321.1531700246 68210766.666667 
5374.3647017249     66305100 
5428.1083487421     64541600 
5482.3894322295     62445000 
5537.2133265518 60437966.666667 
5592.5854598173     58835050 
5648.5113144155 57252066.666667 
5704.9964275597     55455400 
5762.0463918353     53707800 
5819.6668557536     52018100 
5877.8635243112 50359766.666667 
5936.6421595543 48858266.666667 
5996.0085811498     47382700 
6055.9686669613     45967800 
6116.5283536309 44521966.666667 
6177.6936371672     43270500 
6239.4705735389 41974933.333333 
6301.8652792743 40701133.333333 
6364.883932067 39527133.333333 
6428.5327713877     38020875 
6492.8180991016 33619533.333333 
6557.7462800926     30288700 
6623.3237428935     34649100 
6689.5569803225     33780675 
6756.4525501257     32746300 
6824.0170756269     31704450 
6892.2572463832     30706700 
6961.179818847     29744475 
7030.7916170355 28827633.333333 
7101.0995332059     27919325 
7172.1105285379     27090600 
7243.8316338233     26269100 
7316.2699501615 25488633.333333 
7389.4326496631     24718700 
7463.3269761598     23882075 
7537.9602459214     23105300 
7613.3398483806 22431766.666667 
7689.4732468644     21788075 
7766.367979333     21005650 
7844.0316591264     20365600 
7922.4719757176     19718150 
8001.6966954748     19121975 
8081.7136624296     18522625 
8162.5307990539     17949525 
8244.1561070444     17484925 
8326.5976681148     16981300 
8409.863644796     16331300 
8493.9622812439     15602500 
8578.9019040564     15151575 
8664.6909230969     14321460 
8751.3378323279     15352400 
8838.8512106512     13682525 
8927.2397227577     14333020 
9016.5121199853     13908775 
9106.6772411851     14523460 
9197.744013597     11808920 
9289.721453733     13782200 
9382.6186682703     13315100 
9476.444854953     11093998 
9571.2093035025     12195500 
9666.9213965375     12115280 
9763.5906105029     11731060 
9861.226516608     11267040 
9959.838781774 10174549.333333 
10059.437169592      9610335 
10160.031541288     10210600 
10261.631856701      9908845 
10364.248175268      9579850 
10467.89065702      9251985 
10572.56956359 8861406.6666667 
10678.295259226      8491035 
10785.078211819      8081085 
10892.928993937      6832540 
11001.858283876      7648155 
11111.876866715      7490255 
11222.995635382 7187843.3333333 
11335.225591736      6931290 
11448.577847653      6726640 
11563.06362613      6460770 
11678.694262391      6212675 
11795.481205015      6031990 
11913.436017065      5823600 
12032.570377236      5611725 
12152.896081008      5452910 
12274.425041818      5257020 
12397.169292236      5071335 
12521.140985159 4886186.6666667 
12646.35239501      4678200 
12772.81591896      4118920 
12900.54407815      4349340 
13029.549518932      4229515 
13159.845014121      4086880 
13291.443464262      3952510 
13424.357898905 3821493.3333333 
13558.601477894 3672046.6666667 
13694.187492673      3528900 
13831.129367599      3417380 
13969.440661275      3309340 
14109.135067888 3184606.6666667 
14250.226418567 3065736.6666667 
14392.728682753      2946300 
14536.65596958 2846307.6666667 
14682.022529276      2745610 
14828.842754569 2649193.3333333 
14977.131182115 2556453.3333333 
15126.902493936      2467110 
15278.171518875 2376346.6666667 
15430.953234064 2287223.3333333 
15585.262766404 2200736.6666667 
15741.115394068      2119220 
15898.526548009 2062808.5714286 
16057.511813489      1923210 
16218.086931624      1939985 
16380.26780094      1774210 
16544.07047895      1860295 
16709.511183739      1662375 
16876.606295577      1721830 
17045.372358532      1677800 
17215.826082118      1504440 
17387.984342939      1513640 
17561.864186368      1493990 
17737.482828232      1449615 
17914.857656514      1378785 
18094.006233079      1230935 
18274.94629541      1274695 
18457.695758364      1236600 
18642.272715948      1126005 
18828.695443107      1141910 
19016.982397539      1111675 
19207.152221514      1056335 
19399.223743729       957720 
19593.215981166     989448.5 
19789.148140978       955302 
19987.039622388       920090 
20186.910018612     886405.5 
20388.779118798     854351.5 
20592.666909986       823605 
20798.593579086     794352.5 
21006.579514877       766106 
21216.645310025       738774 
21428.811763126       705148 
21643.099880757       650130 
21859.530879564       654080 
22078.12618836     632497.5 
22298.907450244       611542 
22521.896524746     591283.5 
22747.115489993 567448.33333333 
22974.586644893     544817.5 
23204.332511342     527492.5 
23436.375836456 506816.33333333 
23670.73959482     487045.5 
23907.446990769     471891.5 
24146.521460676       453747 
24387.986675283       436315 
24631.866542036 419711.66666667 
24878.185207456     403439.5 
25126.967059531 388088.33333333 
25378.236730126     374980.5 
25632.019097427       359513 
25888.339288402     346233.5 
26147.222681286       317696 
26408.694908098 321219.66666667 
26672.781857179       301463 
26939.509675751 302264.33333333 
27208.904772509       288852 
27480.993820234 267927.33333333 
27755.803758436     269234.5 
28033.361796021 260875.33333333 
28313.695413981 249277.33333333 
28596.832368121       229254 
28882.800691802 230513.66666667 
29171.62869872 222269.33333333 
29463.344985707 213764.66666667 
29757.978435564 205516.66666667 
30055.55821992 191775.33333333 
30356.113802119 185919.33333333 
30659.67494014       183434 
30966.271689541 176800.33333333 
31275.934406437 170407.33333333 
31588.693750501 164304.33333333 
31904.580688006     158652.4 
32223.626494886     151976.5 
32545.862759835       145849 
32871.321387434     135498.5 
33200.034601308     134653.5 
33532.034947321       130250 
33867.355296794     125954.5 
34206.028849762     120452.5 
34548.08913826       116499 
34893.570029642     112717.5 
35242.505729939       107894 
35594.930787238     103322.5 
35950.880095111     98978.45 
36310.388896062      95824.8 
36673.492785022      92798.2 
37040.227712872     87474.05 
37410.629990001      83509.3 
37784.736289901     81942.15 
38162.5836528      78776.9 
38544.209489328     75754.75 
38929.651584221     72438.85 
39318.948100064      70185.9 
39712.137581064     67015.75 
40109.258956875      62644.8 
40510.351546444      62268.1 
40915.455061908      60244.8 
41324.609612527      56896.7 
41737.855708653     55708.75 
42155.234265739     54039.95 
42576.786608396     52102.15 
43002.55447448     50222.15 
43432.580019225      47363.2 
43866.905819417 45988.266666667 
44305.574877612      44409.9 
44748.630626388     42848.15 
45196.116932652      41395.5 
45648.078101978      39621.4 
46104.558882998     36739.25 
46565.604471828     35486.15 
47031.260516546 35230.733333333 
47501.573121712     33876.85 
47976.588852929      32802.1 
48456.354741458 31514.466666667 
48940.918288873     30282.35 
49430.327471761        29111 
49924.630746479      27987.5 
50423.877053944      26888.5 
50928.115824483      25036.4 
51437.396982728      24821.9 
51951.770952555      24029.1 
52471.288662081 23138.733333333 
52996.001548702 22158.766666667 
53525.961564189     21316.25 
54061.221179831 20624.166666667 
54601.833391629      19728.6 
55147.851725545     18989.25 
55699.330242801 18423.133333333 
56256.323545229 17666.233333333 
56818.886780681 16831.566666667 
57387.075648488      16265.9 
57960.946404973      15615.2 
58540.555869022 14627.033333333 
59125.961427713 14205.766666667 
59717.22104199 13841.833333333 
60314.39325241 13335.766666667 
60917.537184934 12833.666666667 
61526.712556783 12351.466666667 
62141.979682351 11846.533333333 
62763.399479174 11284.266666667 
63391.033473966 11033.733333333 
64024.943808706 10577.057142857 
64665.193246793      10216.7 
65311.845179261     9854.945 
65964.963631053      9393.31 
66624.613267364      9045.22 
67290.859400038      8592.89 
67963.767994038     8335.715 
68643.405673978      8076.65 
69329.839730718      7805.82 
70023.138128025     7463.605 
70723.369509305     7135.105 
71430.603204399      6905.93 
72144.909236443      6675.97 
72866.358328807      6396.24 
73595.021912095      6102.44 
74330.972131216     5612.755 
75074.281852528      5587.71 
75825.024671053      5449.66 
76583.274917764     5286.645 
77349.107666942     5063.525 
78122.598743611      4876.12 
78903.824731047      4693.16 
79692.862978358      4510.83 
80489.791608141      4332.48 
81294.689524223     4144.635 
82107.636419465     4011.825 
82928.712783659      3864.31 
83757.999911496      3720.98 
84595.579910611 3551.7333333333 
85441.535709717     3383.155 
86295.951066814     3233.665 
87158.910577482      3078.51 
88030.499683257      3036.22 
88910.80468009     2935.575 
89799.912726891 2809.3233333333 
90697.91185416      2689.33 
91604.890972701     2598.075 
92520.939882428 2482.6966666667 
93446.149281253      2348.77 
94380.610774065     2301.475 
95324.416881806      2213.04 
96277.661050624     2124.755 
97240.43766113 2039.6733333333 
98212.842037741      1957.79 
99194.970458119     1898.045 
100186.9201627       1853.4 
199060.83304441      118.595 
399467.9878358      7.37897 
594753.39981818      1.44602 
793700.71765891     0.454207 
997811.18987739     0.184854 
1193529.3359837    0.0886414 
1399507.0114645    0.0476064 
