#  WAVELENGTH	        FLUX	
#  (ANGSTROM)	(ERG/CM2/S/A)	
############	############	
306.03527260795  3.26735E-23 
315.30844740325  4.90155E-22 
324.86260866801  5.43224E-21 
334.70627057326   5.1647E-20 
344.8482052779  4.29477E-19 
355.29745074603  2.60193E-18 
362.43892950602  1.43818E-17 
373.42119150899  7.30154E-17 
384.7362270329  4.04855E-16 
392.46942519626  2.05152E-15 
404.36164124913  9.56521E-15 
412.48931023824   3.5788E-14 
420.78034537403  1.10086E-13 
429.23803031605  3.34961E-14 
437.8657147254  1.26082E-13 
446.66681559138  3.95786E-13 
455.64481858477  1.05859E-12 
469.4513122327   3.0118E-12 
478.88728360858  8.16985E-12 
488.51291800911  2.12136E-11 
498.3320276611  5.27905E-11 
503.31534793771  1.18427E-10 
508.34850141708  2.23773E-10 
518.56630629557  4.34327E-10 
528.98948905211  9.72122E-10 
539.62217778206   2.06995E-9 
545.01839955988   4.33245E-9 
555.97326939103    8.7525E-9 
567.14833210579   1.72039E-8 
578.54801358112   3.25665E-8 
584.33349371693   6.15648E-8 
596.07859694064   1.12391E-7 
608.05977673914   2.00697E-7 
614.14037450653   3.50895E-7 
626.48459603412   6.01402E-7 
639.0769364144   1.01182E-6 
645.46770577855   1.67206E-6 
651.92238283633   2.46792E-6 
658.44160666469    3.4391E-6 
671.67628295866   5.45113E-6 
678.39304578824   8.50889E-6 
692.02874600859   1.30889E-5 
698.94903346867   1.98444E-5 
712.99790904139   3.09149E-5 
720.12788813181   4.56221E-5 
734.60245868325   6.40977E-5 
741.94848327009   9.25019E-5 
749.36796810279  0.000132002 
764.43026426165  0.000186349 
772.07456690427  0.000260363 
779.79531257331  0.000360192 
787.59326569905  0.000492652 
803.4238903396  0.000669718 
811.45812924299  0.000901578 
819.57271053542   0.00120321 
827.76843764078   0.00159289 
844.40658323736   0.00209226 
852.85064906973   0.00272731 
861.37915556043   0.00352958 
869.99294711603     0.004534 
878.69287658719   0.00578929 
887.47980535306   0.00734201 
896.3546034066   0.00924686 
914.37133093507      3.00377 
923.51504424442      21.7054 
932.75019468686      36.4287 
942.07769663373      58.7734 
951.49847360007      81.6641 
961.01345833607      107.749 
970.62359291943      100.616 
980.32982884862      160.221 
990.13312713711      186.945 
1000.0344584085      236.111 
1010.0348029926      270.901 
1020.1351510225      226.216 
1030.3365025327      377.355 
1040.639867558      469.247 
1051.0462662336      551.441 
1061.556728896      639.385 
1072.1722961849      764.627 
1082.8940191468      902.828 
1093.7229593382      1030.79 
1104.6601889316     2661.945 
1115.7067908209      4251.24 
1126.8638587291      5495.26 
1138.1324973164      6308.59 
1149.5138222896      6559.61 
1161.0089605125      7710.72 
1172.6190501176      8248.01 
1184.3452406188     7069.915 
1196.188693025      4080.66 
1208.1505799552      1054.53 
1220.2320857548       4523.9 
1232.4344066123      9793.29 
1244.7587506785      17371.9 
1257.2063381852      23728.3 
1269.7784015671      30068.9 
1282.4761855828     47650.95 
1295.3009474386      61990.5 
1308.253956913        77809 
1321.3364964821      95000.9 
1334.5498614469     130979.5 
1347.8953600614       164838 
1361.374313662       195737 
1374.9880567986     196477.5 
1388.7379373666       213084 
1402.6253167403     330338.5 
1416.6515699077       426392 
1430.8180856068 485683.05882353 
1445.1262664628 547839.76923077 
1459.5775291275       534125 
1474.1733044187       609950 
1488.9150374629       699868 
1503.8041878376 766361.81818182 
1518.8422297159       736038 
1534.0306520131       883836 
1549.3709585332       748483 
1564.8646681186       622068 
1580.5133147997       691017 
1596.3184479477       726676 
1612.2816324272      1366650 
1628.4044487515      3546420 
1644.688493239      7935100 
1661.1353781714 15671390.909091 
1677.7467319531     23021300 
1694.5241992726     21078400 
1711.4694412654     26576400 
1728.584135678     29799300 
1745.8699770348     32816800 
1763.3286768051     29127150 
1780.9619635732     34380800 
1798.7715832089     33489800 
1816.759299041     31642800 
1834.9268920314     31085200 
1853.2761609517     32665500 
1871.8089225613     34099450 
1890.5270117869     34366550 
1909.4322819047     36389450 
1928.5266047238     35566450 
1947.811870771     38828300 
1967.2899894787 38057647.058824 
1986.9628893735 36444885.714286 
2006.8325182673     34947100 
2026.9008434499     38135250 
2047.1698518844     37734450 
2067.6415504033     40176930 
2088.3179659073     38173050 
2109.2011455664     38720300 
2130.293157022     36367700 
2151.5960885923     36721150 
2173.1120494782     36240100 
2194.843169973     37395900 
2216.7916016727     37899600 
2238.9595176894     35817550 
2261.3491128663     35400950 
2283.962603995 36368333.333333 
2306.8022300349     36154850 
2329.8702523353     33297350 
2353.1689548586     34660800 
2376.7006444072     31652500 
2400.4676508513     32200550 
2424.4723273598 34421666.666667 
2448.7170506334     34451100 
2473.2042211397 32747633.333333 
2497.9362633511 34185108.695652 
2522.9156259846 30041511.111111 
2548.1447822445     31991000 
2573.6262300669     35092700 
2599.3624923676 34000366.666667 
2625.3561172913     37172000 
2651.6096784642 37599466.666667 
2678.1257752488     37092600 
2704.9070330013 35147333.333333 
2731.9561033313 33852066.666667 
2759.2756643647 35296366.666667 
2786.8684210083     27317800 
2814.7371052184     37147300 
2842.8844762706 34719766.666667 
2871.3133210333 35571366.666667 
2900.0264542436     37778000 
2929.026718786     36284500 
2958.3169859739     36395700 
2987.9001558336     36374700 
3017.779157392     36347100 
3047.9569489659     36244300 
3078.4365184556     36181700 
3109.2208836401     35733000 
3140.3130924765     35912450 
3171.7162234013     34484800 
3203.4333856353     34413800 
3235.4677194916     34608900 
3267.8223966866     35068250 
3300.5006206534     34827800 
3333.50562686     34039000 
3366.8406831286     33756300 
3400.5090899598     33774300 
3434.5141808594     33430200 
3468.859322668     33178000 
3503.5479158947     33201100 
3538.5833950537     32838200 
3573.9692290042     32262200 
3609.7089212942     32182420 
3645.8060105072     32527200 
3682.2640706123     31324250 
3719.0867113184     31532750 
3756.2775784316     37759750 
3793.8403542159     42321550 
3831.778757758     54487700 
3870.0965453356     34647900 
3908.797510789     58463550 
3947.8854858969     45797050 
3987.3643407558     60259950 
4027.2379841634     64755600 
4067.510364005     53694600 
4108.1854676451     47244600 
4149.2673223215     61855300 
4190.7599955447     60804950 
4232.6675955002     59480600 
4274.9942714552     55614800 
4317.7442141697     37806350 
4360.9216563114     53637650 
4404.5308728746     55514800 
4448.5761816033 54976833.333333 
4493.0619434193     54026950 
4537.9925628535     53025350 
4583.3724884821     52302500 
4629.2062133669 51177633.333333 
4675.4982755006     49313450 
4722.2532582556     48991950 
4769.4757908381     47119500 
4817.1705487465     38407800 
4865.342254234 37312766.666667 
4913.9956767763     43946750 
4963.1356335441     43588100 
5012.7669898795     42861500 
5062.8946597783 42071066.666667 
5113.5236063761     41043800 
5164.6588424398 39714866.666667 
5216.3054308642     39217500 
5268.4684851729 38334633.333333 
5321.1531700246     37372600 
5374.3647017249     36545300 
5428.1083487421     35857600 
5482.3894322295 35026533.333333 
5537.2133265518 34112666.666667 
5592.5854598173     33424150 
5648.5113144155     32741900 
5704.9964275597     31942400 
5762.0463918353     31156300 
5819.6668557536 30380466.666667 
5877.8635243112 29542833.333333 
5936.6421595543     28903900 
5996.0085811498 28185433.333333 
6055.9686669613     27513000 
6116.5283536309 26771933.333333 
6177.6936371672     26193900 
6239.4705735389     25549100 
6301.8652792743 24930933.333333 
6364.883932067 24294266.666667 
6428.5327713877     23447800 
6492.8180991016 20826233.333333 
6557.7462800926     18880800 
6623.3237428935     21706600 
6689.5569803225     21343050 
6756.4525501257 20833233.333333 
6824.0170756269     20280150 
6892.2572463832 19747133.333333 
6961.179818847     19224675 
7030.7916170355 18727833.333333 
7101.0995332059     18218975 
7172.1105285379     17760900 
7243.8316338233     17308275 
7316.2699501615 16872233.333333 
7389.4326496631     16432400 
7463.3269761598     15961075 
7537.9602459214     15519400 
7613.3398483806 15127033.333333 
7689.4732468644     14753475 
7766.367979333     14309725 
7844.0316591264     13931250 
7922.4719757176     13545275 
8001.6966954748     13181300 
8081.7136624296     12824600 
8162.5307990539     12460850 
8244.1561070444     12158650 
8326.5976681148     11838600 
8409.863644796     11478040 
8493.9622812439     11015375 
8578.9019040564     10768650 
8664.6909230969     10177864 
8751.3378323279     10442250 
8838.8512106512      9571070 
8927.2397227577      9716068 
9016.5121199853      9479790 
9106.6772411851      9731530 
9197.744013597      8317045 
9289.721453733      9309078 
9382.6186682703      9035102 
9476.444854953      7798748 
9571.2093035025    8386092.5 
9666.9213965375      8350086 
9763.5906105029      8127080 
9861.226516608      7847808 
9959.838781774      7188524 
10059.437169592      6840375 
10160.031541288      7211565 
10261.631856701      7038555 
10364.248175268      6840455 
10467.89065702      6632310 
10572.56956359      6382500 
10678.295259226      6143095 
10785.078211819      5861395 
10892.928993937      5053995 
11001.858283876      5601275 
11111.876866715      5516870 
11222.995635382 5332256.6666667 
11335.225591736      5160760 
11448.577847653      5031220 
11563.06362613 4851263.3333333 
11678.694262391      4685365 
11795.481205015      4562540 
11913.436017065 4426193.3333333 
12032.570377236      4283810 
12152.896081008      4182000 
12274.425041818 4047546.6666667 
12397.169292236      3922275 
12521.140985159      3785430 
12646.35239501      3625690 
12772.81591896      3183230 
12900.54407815 3402356.6666667 
13029.549518932      3328745 
13159.845014121 3232763.3333333 
13291.443464262      3137075 
13424.357898905 3043523.3333333 
13558.601477894 2935666.6666667 
13694.187492673 2829643.3333333 
13831.129367599      2750025 
13969.440661275      2670620 
14109.135067888 2578083.3333333 
14250.226418567 2489973.3333333 
14392.728682753      2396840 
14536.65596958 2323917.6666667 
14682.022529276 2246376.6666667 
14828.842754569 2172113.3333333 
14977.131182115 2100533.3333333 
15126.902493936 2035153.3333333 
15278.171518875      1966370 
15430.953234064 1899803.3333333 
15585.262766404 1833693.3333333 
15741.115394068      1766210 
15898.526548009 1713651.4285714 
16057.511813489      1616280 
16218.086931624      1605190 
16380.26780094      1483100 
16544.07047895      1532990 
16709.511183739      1373200 
16876.606295577      1419710 
17045.372358532      1386100 
17215.826082118      1235610 
17387.984342939      1247365 
17561.864186368      1236290 
17737.482828232      1200560 
17914.857656514      1139630 
18094.006233079    1008464.5 
18274.94629541      1054775 
18457.695758364      1023740 
18642.272715948       919081 
18828.695443107       941600 
19016.982397539     922792.5 
19207.152221514       873240 
19399.223743729     785381.5 
19593.215981166       821034 
19789.148140978     795244.5 
19987.039622388     766428.5 
20186.910018612     738351.5 
20388.779118798     711983.5 
20592.666909986       686324 
20798.593579086       662090 
21006.579514877       638624 
21216.645310025       615033 
21428.811763126     585092.5 
21643.099880757 536490.66666667 
21859.530879564       544846 
22078.12618836     527702.5 
22298.907450244       510388 
22521.896524746     493398.5 
22747.115489993 473562.33333333 
22974.586644893     454725.5 
23204.332511342     440290.5 
23436.375836456       423086 
23670.73959482     406584.5 
23907.446990769       394014 
24146.521460676       378932 
24387.986675283       364455 
24631.866542036       350669 
24878.185207456     337416.5 
25126.967059531       324770 
25378.236730126     313203.5 
25632.019097427 300878.66666667 
25888.339288402       289045 
26147.222681286 263932.66666667 
26408.694908098 267649.66666667 
26672.781857179       254385 
26939.509675751 251668.66666667 
27208.904772509       240687 
27480.993820234 225178.66666667 
27755.803758436     224081.5 
28033.361796021       217279 
28313.695413981 207560.66666667 
28596.832368121       192127 
28882.800691802 192048.66666667 
29171.62869872 185276.33333333 
29463.344985707 178224.66666667 
29757.978435564       171310 
30055.55821992 160099.33333333 
30356.113802119 155199.66666667 
30659.67494014 152981.66666667 
30966.271689541       147482 
31275.934406437       142187 
31588.693750501 137121.33333333 
31904.580688006     132421.4 
32223.626494886       126850 
32545.862759835       121730 
32871.321387434     113205.5 
33200.034601308     112505.5 
33532.034947321       108844 
33867.355296794     105262.5 
34206.028849762    100685.95 
34548.08913826      97388.8 
34893.570029642      94235.4 
35242.505729939      90211.6 
35594.930787238     86393.15 
35950.880095111     82779.45 
36310.388896062      80158.8 
36673.492785022     77623.65 
37040.227712872      73148.5 
37410.629990001      69877.6 
37784.736289901      68588.3 
38162.5836528     65934.85 
38544.209489328     63372.85 
38929.651584221      60769.7 
39318.948100064     58655.15 
39712.137581064     56174.95 
40109.258956875     52550.75 
40510.351546444     52045.35 
40915.455061908        50386 
41324.609612527      47949.4 
41737.855708653      46648.3 
42155.234265739     45143.05 
42576.786608396     43529.85 
43002.55447448      41980.7 
43432.580019225     39877.05 
43866.905819417      38545.1 
44305.574877612      37112.5 
44748.630626388     35828.65 
45196.116932652     34618.05 
45648.078101978 33145.266666667 
46104.558882998     30810.85 
46565.604471828     29909.55 
47031.260516546 29487.833333333 
47501.573121712      28379.5 
47976.588852929      27493.8 
48456.354741458 26413.633333333 
48940.918288873     25382.05 
49430.327471761        24404 
49924.630746479      23469.7 
50423.877053944 22534.833333333 
50928.115824483     21105.95 
51437.396982728 20824.633333333 
51951.770952555      20156.4 
52471.288662081 19413.633333333 
52996.001548702 18585.166666667 
53525.961564189     17891.05 
54061.221179831 17285.433333333 
54601.833391629 16549.733333333 
55147.851725545     15952.45 
55699.330242801      15433.5 
56256.323545229 14803.733333333 
56818.886780681 14158.766666667 
57387.075648488      13637.6 
57960.946404973 13090.866666667 
58540.555869022 12322.066666667 
59125.961427713 11986.566666667 
59717.22104199 11624.333333333 
60314.39325241        11197 
60917.537184934        10774 
61526.712556783      10371.8 
62141.979682351 9961.8633333333 
62763.399479174      9535.08 
63391.033473966      9270.84 
64024.943808706      8867.75 
64665.193246793      8565.19 
65311.845179261     8263.645 
65964.963631053     7880.405 
66624.613267364      7606.27 
67290.859400038     7266.205 
67963.767994038     7008.835 
68643.405673978      6778.55 
69329.839730718       6552.8 
70023.138128025      6265.48 
70723.369509305     5994.005 
71430.603204399       5799.4 
72144.909236443      5613.12 
72866.358328807      5376.57 
73595.021912095     5140.215 
74330.972131216      4763.48 
75074.281852528      4714.07 
75825.024671053      4592.19 
76583.274917764      4453.24 
77349.107666942      4270.92 
78122.598743611     4106.875 
78903.824731047      3946.38 
79692.862978358     3793.605 
80489.791608141       3648.1 
81294.689524223      3501.17 
82107.636419465     3377.505 
82928.712783659      3251.61 
83757.999911496      3131.45 
84595.579910611 2989.3933333333 
85441.535709717     2853.375 
86295.951066814      2738.86 
87158.910577482     2613.305 
88030.499683257      2560.55 
88910.80468009      2472.43 
89799.912726891 2366.4633333333 
90697.91185416     2265.725 
91604.890972701     2189.125 
92520.939882428 2097.1666666667 
93446.149281253      1996.08 
94380.610774065      1945.16 
95324.416881806 1866.5633333333 
96277.661050624      1791.61 
97240.43766113      1720.57 
98212.842037741     1652.805 
99194.970458119     1601.065 
100186.9201627      1563.54 
199060.83304441      101.039 
399467.9878358      6.34226 
594753.39981818      1.24771 
793700.71765891      0.39283 
997811.18987739     0.160148 
1193529.3359837    0.0769028 
1399507.0114645    0.0413519 
