#  WAVELENGTH	        FLUX	
#  (ANGSTROM)	(ERG/CM2/S/A)	
############	############	
545.01839955988   1.3089E-24 
555.97326939103  4.51368E-24 
567.14833210579  1.48628E-23 
578.54801358112  4.63464E-23 
584.33349371693  1.41634E-22 
596.07859694064  4.11735E-22 
608.05977673914  1.15307E-21 
614.14037450653  3.11607E-21 
626.48459603412  8.14161E-21 
639.0769364144  2.06089E-20 
645.46770577855  5.05969E-20 
651.92238283633  1.01621E-19 
658.44160666469    1.843E-19 
671.67628295866  4.21616E-19 
678.39304578824  9.39768E-19 
692.02874600859  2.04297E-18 
698.94903346867  4.33482E-18 
712.99790904139  9.66855E-18 
720.12788813181  1.95864E-17 
734.60245868325  3.63309E-17 
741.94848327009   7.0829E-17 
749.36796810279  1.35452E-16 
764.43026426165  2.54321E-16 
772.07456690427  4.69073E-16 
779.79531257331  8.50697E-16 
787.59326569905  1.51527E-15 
803.4238903396  2.66369E-15 
811.45812924299  4.60901E-15 
819.57271053542  7.85813E-15 
827.76843764078  1.32132E-14 
844.40658323736  2.19176E-14 
852.85064906973   3.5887E-14 
861.37915556043  5.80233E-14 
869.99294711603  9.26641E-14 
878.69287658719  1.46344E-13 
887.47980535306  2.28481E-13 
896.3546034066  3.52823E-13 
914.37133093507   8.63141E-9 
923.51504424442    3.2273E-8 
932.75019468686   5.01949E-8 
942.07769663373   7.75629E-8 
951.49847360007    1.2288E-7 
961.01345833607   1.85767E-7 
970.62359291943   2.77309E-7 
980.32982884862    4.1485E-7 
990.13312713711   6.11202E-7 
1000.0344584085    9.0913E-7 
1010.0348029926   1.31304E-6 
1020.1351510225   1.80845E-6 
1030.3365025327   2.71456E-6 
1040.639867558   3.85518E-6 
1051.0462662336   5.43149E-6 
1061.556728896   7.59623E-6 
1072.1722961849   1.05594E-5 
1082.8940191468   1.45812E-5 
1093.7229593382   1.99955E-5 
1104.6601889316  0.000115216 
1115.7067908209  0.000272124 
1126.8638587291  0.000402456 
1138.1324973164  0.000510687 
1149.5138222896   0.00054368 
1161.0089605125  0.000669341 
1172.6190501176  0.000698654 
1184.3452406188  0.000860118 
1196.188693025  0.000455391 
1208.1505799552  0.000287379 
1220.2320857548  0.000750686 
1232.4344066123    0.0011794 
1244.7587506785   0.00308617 
1257.2063381852   0.00587311 
1269.7784015671   0.00933398 
1282.4761855828   0.01739415 
1295.3009474386     0.022546 
1308.253956913    0.0340756 
1321.3364964821    0.0412625 
1334.5498614469    0.0580818 
1347.8953600614    0.0781622 
1361.374313662    0.0892782 
1374.9880567986     0.115108 
1388.7379373666     0.146758 
1402.6253167403    0.1947235 
1416.6515699077     0.238399 
1430.8180856068 0.31667147058824 
1445.1262664628 0.38065084615385 
1459.5775291275     0.497353 
1474.1733044187     0.565806 
1488.9150374629      0.82681 
1503.8041878376 0.98336645454545 
1518.8422297159      1.43192 
1534.0306520131     4.221225 
1549.3709585332      6.77405 
1564.8646681186      8.97375 
1580.5133147997      16.3065 
1596.3184479477      19.5793 
1612.2816324272      25.2566 
1628.4044487515      31.5972 
1644.688493239      35.0196 
1661.1353781714 48.222759090909 
1677.7467319531      101.176 
1694.5241992726     135.0775 
1711.4694412654     161.5805 
1728.584135678     243.2165 
1745.8699770348       351.03 
1763.3286768051       374.88 
1780.9619635732     521.4905 
1798.7715832089     596.0875 
1816.759299041      653.859 
1834.9268920314     822.9695 
1853.2761609517    1035.5205 
1871.8089225613     1296.435 
1890.5270117869      1631.83 
1909.4322819047     2038.465 
1928.5266047238     2296.065 
1947.811870771 3207.4063636364 
1967.2899894787 3640.9941176471 
1986.9628893735 4233.1452380952 
2006.8325182673      4510.96 
2026.9008434499      6160.03 
2047.1698518844      6440.16 
2067.6415504033     9909.433 
2088.3179659073     16915.65 
2109.2011455664     18668.25 
2130.293157022      20384.1 
2151.5960885923      25786.2 
2173.1120494782      31274.9 
2194.843169973      35363.8 
2216.7916016727     43418.65 
2238.9595176894     41361.75 
2261.3491128663     39295.45 
2283.962603995 59287.566666667 
2306.8022300349     52093.25 
2329.8702523353     21024.75 
2353.1689548586 28404.666666667 
2376.7006444072      18095.7 
2400.4676508513      28096.5 
2424.4723273598 101650.83333333 
2448.7170506334       119008 
2473.2042211397 86324.966666667 
2497.9362633511 100451.42173913 
2522.9156259846 86811.303703704 
2548.1447822445     136753.5 
2573.6262300669 98876.133333333 
2599.3624923676      59241.3 
2625.3561172913     251183.5 
2651.6096784642 348618.66666667 
2678.1257752488       338650 
2704.9070330013 280942.66666667 
2731.9561033313 168645.33333333 
2759.2756643647 191053.66666667 
2786.8684210083      46337.3 
2814.7371052184       308105 
2842.8844762706       367899 
2871.3133210333 544041.66666667 
2900.0264542436       734054 
2929.026718786       692714 
2958.3169859739       798569 
2987.9001558336       846122 
3017.779157392       908947 
3047.9569489659       937316 
3078.4365184556       973696 
3109.2208836401     984615.5 
3140.3130924765      1017822 
3171.7162234013       974727 
3203.4333856353    1030854.5 
3235.4677194916      1230040 
3267.8223966866      1411340 
3300.5006206534      1415605 
3333.50562686      1380500 
3366.8406831286      1307850 
3400.5090899598      1572800 
3434.5141808594      1683950 
3468.859322668      1698850 
3503.5479158947      1804580 
3538.5833950537      1886580 
3573.9692290042      1773670 
3609.7089212942      1890040 
3645.8060105072 2063856.6666667 
3682.2640706123      2428210 
3719.0867113184      2837975 
3756.2775784316      3233305 
3793.8403542159      3269130 
3831.778757758      3382045 
3870.0965453356      3208110 
3908.797510789      2393780 
3947.8854858969      2283075 
3987.3643407558      3976765 
4027.2379841634      4186615 
4067.510364005      4327215 
4108.1854676451      4421845 
4149.2673223215 4544993.3333333 
4190.7599955447      4407245 
4232.6675955002      4404370 
4274.9942714552      3701415 
4317.7442141697      4490020 
4360.9216563114      4627285 
4404.5308728746      4805120 
4448.5761816033 5008713.3333333 
4493.0619434193      5235350 
4537.9925628535      5268150 
4583.3724884821      5308385 
4629.2062133669 5425833.3333333 
4675.4982755006      5424475 
4722.2532582556      5560670 
4769.4757908381 5556433.3333333 
4817.1705487465      5481045 
4865.342254234      5296920 
4913.9956767763      5453495 
4963.1356335441 5358616.6666667 
5012.7669898795      5422620 
5062.8946597783 5468113.3333333 
5113.5236063761      5291505 
5164.6588424398 5208543.3333333 
5216.3054308642      5347010 
5268.4684851729 5299753.3333333 
5321.1531700246 5353443.3333333 
5374.3647017249      5327885 
5428.1083487421      5374540 
5482.3894322295      5375210 
5537.2133265518 5367303.3333333 
5592.5854598173      5369480 
5648.5113144155 5321206.6666667 
5704.9964275597 5336973.3333333 
5762.0463918353      5326060 
5819.6668557536      5301270 
5877.8635243112 5211393.3333333 
5936.6421595543 5221716.6666667 
5996.0085811498 5167343.3333333 
6055.9686669613 5119356.6666667 
6116.5283536309      4967880 
6177.6936371672 5007033.3333333 
6239.4705735389 4920733.3333333 
6301.8652792743      4898150 
6364.883932067 4864693.3333333 
6428.5327713877    4787342.5 
6492.8180991016 4772593.3333333 
6557.7462800926 4570906.6666667 
6623.3237428935 4699376.6666667 
6689.5569803225    4655002.5 
6756.4525501257      4594460 
6824.0170756269    4540287.5 
6892.2572463832 4489863.3333333 
6961.179818847    4426157.5 
7030.7916170355 4377746.6666667 
7101.0995332059    4306952.5 
7172.1105285379 4225593.3333333 
7243.8316338233      4195035 
7316.2699501615 4151876.6666667 
7389.4326496631    4068207.5 
7463.3269761598      4031880 
7537.9602459214      3983725 
7613.3398483806 3921823.3333333 
7689.4732468644      3864390 
7766.367979333      3821460 
7844.0316591264      3766515 
7922.4719757176      3700295 
8001.6966954748    3648887.5 
8081.7136624296    3599002.5 
8162.5307990539    3523357.5 
8244.1561070444      3484205 
8326.5976681148    3412312.5 
8409.863644796      3351560 
8493.9622812439      3130275 
8578.9019040564    3263767.5 
8664.6909230969      3119238 
8751.3378323279      3172890 
8838.8512106512    3111792.5 
8927.2397227577      3057704 
9016.5121199853      3005250 
9106.6772411851      2974734 
9197.744013597    2882052.5 
9289.721453733      2876396 
9382.6186682703      2806964 
9476.444854953      2753860 
9571.2093035025      2713335 
9666.9213965375      2668202 
9763.5906105029      2625778 
9861.226516608      2575172 
9959.838781774 2532592.6666667 
10059.437169592      2471060 
10160.031541288      2435235 
10261.631856701      2390685 
10364.248175268      2350905 
10467.89065702      2301720 
10572.56956359 2240796.6666667 
10678.295259226      2192225 
10785.078211819      2146555 
10892.928993937      2096905 
11001.858283876      2085890 
11111.876866715      2045995 
11222.995635382      1999950 
11335.225591736      1952880 
11448.577847653      1932220 
11563.06362613 1877843.3333333 
11678.694262391      1842005 
11795.481205015      1802930 
11913.436017065 1772956.6666667 
12032.570377236      1738260 
12152.896081008      1718910 
12274.425041818 1681983.3333333 
12397.169292236      1650265 
12521.140985159      1614910 
12646.35239501      1585680 
12772.81591896 1539123.3333333 
12900.54407815 1518803.3333333 
13029.549518932      1489400 
13159.845014121      1459530 
13291.443464262      1434820 
13424.357898905 1410643.3333333 
13558.601477894 1376973.3333333 
13694.187492673 1345973.3333333 
13831.129367599      1325595 
13969.440661275      1301850 
14109.135067888 1272256.6666667 
14250.226418567 1246613.3333333 
14392.728682753 1214203.3333333 
14536.65596958 1195824.3333333 
14682.022529276      1169020 
14828.842754569 1146506.6666667 
14977.131182115 1118796.6666667 
15126.902493936 1101546.6666667 
15278.171518875 1075853.3333333 
15430.953234064      1056880 
15585.262766404 1035346.6666667 
15741.115394068 1005107.3333333 
15898.526548009 1001436.2857143 
16057.511813489       956491 
16218.086931624     955687.5 
16380.26780094       904912 
16544.07047895       904291 
16709.511183739       852160 
16876.606295577       843001 
17045.372358532       814259 
17215.826082118       768422 
17387.984342939       749847 
17561.864186368       728241 
17737.482828232       708393 
17914.857656514     681975.5 
18094.006233079       645038 
18274.94629541     629772.5 
18457.695758364       612365 
18642.272715948       583612 
18828.695443107       569466 
19016.982397539     552403.5 
19207.152221514     531524.5 
19399.223743729       504494 
19593.215981166       493373 
19789.148140978       476583 
19987.039622388     461215.5 
20186.910018612     443742.5 
20388.779118798       429808 
20592.666909986     414157.5 
20798.593579086       400133 
21006.579514877       386908 
21216.645310025     373845.5 
21428.811763126       362031 
21643.099880757       343449 
21859.530879564       332552 
22078.12618836       322007 
22298.907450244     311902.5 
22521.896524746       301213 
22747.115489993       289565 
22974.586644893     278505.5 
23204.332511342       268948 
23436.375836456 259005.33333333 
23670.73959482     248874.5 
23907.446990769       241781 
24146.521460676 232380.66666667 
24387.986675283     223633.5 
24631.866542036       215734 
24878.185207456     208040.5 
25126.967059531       200752 
25378.236730126     194239.5 
25632.019097427       186475 
25888.339288402     181166.5 
26147.222681286 172510.33333333 
26408.694908098 167226.66666667 
26672.781857179       160808 
26939.509675751 156716.33333333 
27208.904772509       150523 
27480.993820234 143655.33333333 
27755.803758436       139816 
28033.361796021       135276 
28313.695413981       130047 
28596.832368121 124332.33333333 
28882.800691802 120328.33333333 
29171.62869872 115743.33333333 
29463.344985707 111494.66666667 
29757.978435564       107361 
30055.55821992 102967.33333333 
30356.113802119      99566.4 
30659.67494014 96052.566666667 
30966.271689541 92542.833333333 
31275.934406437 89321.933333333 
31588.693750501      86232.8 
31904.580688006     83354.96 
32223.626494886     79922.25 
32545.862759835        77193 
32871.321387434      74217.4 
33200.034601308      71254.5 
33532.034947321      68884.8 
33867.355296794     66554.05 
34206.028849762      63783.1 
34548.08913826      61730.3 
34893.570029642     59758.85 
35242.505729939      57217.8 
35594.930787238      54814.5 
35950.880095111      52599.2 
36310.388896062      50877.2 
36673.492785022      49304.2 
37040.227712872     47327.65 
37410.629990001      45282.9 
37784.736289901     43674.65 
38162.5836528     42028.05 
38544.209489328      40391.5 
38929.651584221      38799.9 
39318.948100064      37383.7 
39712.137581064      35921.6 
40109.258956875      34440.9 
40510.351546444     33349.65 
40915.455061908     32153.75 
41324.609612527      30909.5 
41737.855708653      29837.5 
42155.234265739      28810.8 
42576.786608396     27700.35 
43002.55447448     26493.65 
43432.580019225     25316.65 
43866.905819417 24155.833333333 
44305.574877612      23018.9 
44748.630626388      22258.6 
45196.116932652      21431.9 
45648.078101978 20584.733333333 
46104.558882998     19743.85 
46565.604471828     19168.65 
47031.260516546      18485.8 
47501.573121712     17779.75 
47976.588852929      17219.8 
48456.354741458      16575.1 
48940.918288873     15955.15 
49430.327471761 15359.466666667 
49924.630746479     14783.15 
50423.877053944 14232.866666667 
50928.115824483      13700.5 
51437.396982728 13234.033333333 
51951.770952555      12745.1 
52471.288662081      12304.4 
52996.001548702 11793.733333333 
53525.961564189      11386.9 
54061.221179831      10994.2 
54601.833391629 10548.733333333 
55147.851725545      10192.5 
55699.330242801      9860.64 
56256.323545229      9475.16 
56818.886780681 9096.9333333333 
57387.075648488      8751.75 
57960.946404973 8415.8166666667 
58540.555869022 8082.7966666667 
59125.961427713 7778.4666666667 
59717.22104199      7495.66 
60314.39325241 7213.3766666667 
60917.537184934 6944.7033333333 
61526.712556783 6692.4466666667 
62141.979682351 6444.5166666667 
62763.399479174 6207.0233333333 
63391.033473966      5989.97 
64024.943808706 5731.8771428571 
64665.193246793      5537.26 
65311.845179261     5345.945 
65964.963631053      5099.89 
66624.613267364      4924.42 
67290.859400038      4753.33 
67963.767994038     4544.285 
68643.405673978      4392.17 
69329.839730718     4246.395 
70023.138128025      4061.62 
70723.369509305     3886.825 
71430.603204399      3761.65 
72144.909236443       3641.1 
72866.358328807      3489.03 
73595.021912095       3344.2 
74330.972131216      3196.49 
75074.281852528     3076.245 
75825.024671053      2982.67 
76583.274917764      2892.88 
77349.107666942     2777.545 
78122.598743611      2669.14 
78903.824731047     2565.305 
79692.862978358     2466.365 
80489.791608141     2372.205 
81294.689524223     2281.445 
82107.636419465      2197.16 
82928.712783659     2115.515 
83757.999911496      2037.82 
84595.579910611      1945.83 
85441.535709717     1858.455 
86295.951066814     1791.545 
87158.910577482       1727.9 
88030.499683257      1668.42 
88910.80468009      1610.57 
89799.912726891 1541.8233333333 
90697.91185416      1476.36 
91604.890972701     1426.825 
92520.939882428 1367.6366666667 
93446.149281253     1310.705 
94380.610774065     1268.475 
95324.416881806 1217.3033333333 
96277.661050624      1168.65 
97240.43766113 1122.3766666667 
98212.842037741     1078.395 
99194.970458119     1044.795 
100186.9201627      1020.51 
199060.83304441      66.5006 
399467.9878358      4.20147 
594753.39981818     0.828974 
793700.71765891      0.26138 
997811.18987739     0.106633 
1193529.3359837    0.0512171 
1399507.0114645    0.0275397 
