#  WAVELENGTH	        FLUX	
#  (ANGSTROM)	(ERG/CM2/S/A)	
############	############	
123.7446610678  1.87274E-22 
126.23192875526  8.66499E-22 
127.49424804281  1.90319E-21 
130.05688242847  6.53263E-21 
131.35745125276  1.91643E-20 
132.67102576529  4.38102E-20 
135.33771338317  1.85511E-19 
139.43858143639  9.55819E-19 
142.24129692326  5.28012E-18 
146.55135046134   3.2273E-17 
150.99200293167  1.72363E-16 
154.02694219059  9.99841E-16 
158.69411256591  4.19302E-15 
161.88386422848  1.42382E-14 
165.13772989948   6.1527E-14 
170.14156825316  2.75253E-13 
171.84298393569  7.74973E-13 
175.2970279128  2.31571E-12 
178.82049817385  6.64673E-12 
180.60870315558  1.04534E-11 
186.0813274699  3.79079E-11 
189.82156215205  1.48695E-10 
193.6369755513  3.23191E-10 
197.52907875988   1.03211E-9 
201.49941324296   2.40156E-9 
203.51440737539   5.18818E-9 
209.68109743327   1.84632E-8 
216.03464436659   6.43729E-8 
218.19499081026   1.37102E-7 
222.58071012555   2.63027E-7 
224.8065172268   5.56993E-7 
229.32512822306   2.64238E-6 
233.93456330034   6.26377E-6 
238.63664802268   1.77685E-5 
245.86757709442   5.15115E-5 
250.80951539401  0.000129549 
255.85078665343  0.000246148 
258.40929451997  0.000396859 
263.60332133982   0.00069664 
266.23935455322   0.00128311 
271.59076557974   0.00246786 
277.04973996789   0.00464211 
282.61843974125   0.00905253 
288.29907038004    0.0181897 
294.09388169468    0.0354403 
300.00516871675    0.0605923 
306.03527260795     0.123026 
315.30844740325     0.328576 
324.86260866801     0.814116 
334.70627057326      1.91013 
344.8482052779      4.25277 
355.29745074603      8.39485 
362.43892950602      16.0171 
373.42119150899      29.4767 
384.7362270329      56.0933 
392.46942519626      102.969 
404.36164124913      183.114 
412.48931023824      299.807 
420.78034537403      455.226 
429.23803031605      678.889 
437.8657147254      1151.28 
446.66681559138      1813.69 
455.64481858477      2678.06 
469.4513122327      4053.13 
478.88728360858       6015.1 
488.51291800911      8774.78 
498.3320276611      12580.8 
503.31534793771      81812.5 
508.34850141708       264860 
518.56630629557       338193 
528.98948905211       471175 
539.62217778206       537603 
545.01839955988       757869 
555.97326939103       922533 
567.14833210579      1150090 
578.54801358112      1209370 
584.33349371693      1605080 
596.07859694064      1981920 
608.05977673914      2383400 
614.14037450653      2781770 
626.48459603412      3280840 
639.0769364144      3719850 
645.46770577855      4322470 
651.92238283633      4939680 
658.44160666469      5421060 
671.67628295866      6090940 
678.39304578824      6914140 
692.02874600859      8042740 
698.94903346867      9020610 
712.99790904139     10255700 
720.12788813181     11421800 
734.60245868325     12651500 
741.94848327009     14175300 
749.36796810279     15754600 
764.43026426165     17368000 
772.07456690427     19223400 
779.79531257331     21150300 
787.59326569905     23041000 
803.4238903396     25159700 
811.45812924299     27303100 
819.57271053542     29820700 
827.76843764078     31824200 
844.40658323736     34661100 
852.85064906973     37231500 
861.37915556043     40332300 
869.99294711603     43461200 
878.69287658719     46824300 
887.47980535306     50069200 
896.3546034066     52519700 
914.37133093507     73035400 
923.51504424442    253255000 
932.75019468686    639241000 
942.07769663373   2747360000 
951.49847360007   6887520000 
961.01345833607   9943520000 
970.62359291943   2539160000 
980.32982884862  16621600000 
990.13312713711  17834500000 
1000.0344584085  18846900000 
1010.0348029926  13326400000 
1020.1351510225   1679070000 
1030.3365025327  10040500000 
1040.639867558  19371100000 
1051.0462662336  19544800000 
1061.556728896  17264400000 
1072.1722961849  18973000000 
1082.8940191468  17308400000 
1093.7229593382  18544600000 
1104.6601889316  17100900000 
1115.7067908209  15697300000 
1126.8638587291  16619400000 
1138.1324973164  15200500000 
1149.5138222896  15815000000 
1161.0089605125  15739600000 
1172.6190501176  12910500000 
1184.3452406188  13669900000 
1196.188693025   7951160000 
1208.1505799552   1514430000 
1220.2320857548   7256570000 
1232.4344066123  12114100000 
1244.7587506785  12753500000 
1257.2063381852  12352400000 
1269.7784015671  12608100000 
1282.4761855828  11578200000 
1295.3009474386  10494300000 
1308.253956913  11678400000 
1321.3364964821  11143800000 
1334.5498614469  10698100000 
1347.8953600614  10713900000 
1361.374313662  10244900000 
1374.9880567986  10048100000 
1388.7379373666   9289010000 
1402.6253167403   9366280000 
1416.6515699077   9226860000 
1430.8180856068 9117765882.3529 
1445.1262664628 8894502307.6923 
1459.5775291275   8539620000 
1474.1733044187   8296290000 
1488.9150374629   8077100000 
1503.8041878376 7574724090.9091 
1518.8422297159   7429730000 
1534.0306520131   7042830000 
1549.3709585332   6775610000 
1564.8646681186   6852015000 
1580.5133147997   6744205000 
1596.3184479477   6512420000 
1612.2816324272   6370305000 
1628.4044487515   6325650000 
1644.688493239   6111870000 
1661.1353781714 6013023181.8182 
1677.7467319531   5925310000 
1694.5241992726   5677440000 
1711.4694412654   5376565000 
1728.584135678   5285070000 
1745.8699770348   5234680000 
1763.3286768051   4960800000 
1780.9619635732   4932035000 
1798.7715832089   4792330000 
1816.759299041   4701590000 
1834.9268920314   4482185000 
1853.2761609517   4268550000 
1871.8089225613   4204695000 
1890.5270117869   3981710000 
1909.4322819047   3849920000 
1928.5266047238   3856440000 
1947.811870771 3709474545.4545 
1967.2899894787 3718808823.5294 
1986.9628893735 3546757142.8571 
2006.8325182673   3549185000 
2026.9008434499   3407725000 
2047.1698518844   3290895000 
2067.6415504033   3279086500 
2088.3179659073   3149050000 
2109.2011455664   3129260000 
2130.293157022   3036880000 
2151.5960885923   2977480000 
2173.1120494782   2896410000 
2194.843169973 2814403333.3333 
2216.7916016727   2713030000 
2238.9595176894   2652235000 
2261.3491128663   2595815000 
2283.962603995   2511730000 
2306.8022300349   2431320000 
2329.8702523353   2343745000 
2353.1689548586 2287336666.6667 
2376.7006444072   2213365000 
2400.4676508513   2161735000 
2424.4723273598   2111330000 
2448.7170506334   2054600000 
2473.2042211397   1987320000 
2497.9362633511 1929435652.1739 
2522.9156259846 1867253703.7037 
2548.1447822445   1833260000 
2573.6262300669 1789356666.6667 
2599.3624923676   1738510000 
2625.3561172913   1699380000 
2651.6096784642 1653103333.3333 
2678.1257752488   1609395000 
2704.9070330013 1566373333.3333 
2731.9561033313 1510923333.3333 
2759.2756643647 1470586666.6667 
2786.8684210083   1416905000 
2814.7371052184   1389300000 
2842.8844762706 1359153333.3333 
2871.3133210333 1319603333.3333 
2900.0264542436   1286870000 
2929.026718786   1241220000 
2958.3169859739   1211820000 
2987.9001558336   1175400000 
3017.779157392   1143090000 
3047.9569489659   1110085000 
3078.4365184556   1077620000 
3109.2208836401   1048260000 
3140.3130924765   1009672000 
3171.7162234013    971693000 
3203.4333856353    954172000 
3235.4677194916    927906000 
3267.8223966866    903230000 
3300.5006206534    871765000 
3333.50562686    846986000 
3366.8406831286    826115500 
3400.5090899598    796138000 
3434.5141808594    771693000 
3468.859322668    753825500 
3503.5479158947    729489500 
3538.5833950537    707694500 
3573.9692290042    686866000 
3609.7089212942    669755000 
3645.8060105072 649805333.33333 
3682.2640706123    626527000 
3719.0867113184    591910000 
3756.2775784316    604834000 
3793.8403542159    614315000 
3831.778757758    711731500 
3870.0965453356    527449000 
3908.797510789    723729000 
3947.8854858969    597173000 
3987.3643407558    675746000 
4027.2379841634    653525000 
4067.510364005    609877000 
4108.1854676451    543865500 
4149.2673223215    611034000 
4190.7599955447    592255000 
4232.6675955002    570025500 
4274.9942714552    546165000 
4317.7442141697    430551000 
4360.9216563114    498778500 
4404.5308728746    500608500 
4448.5761816033 471155666.66667 
4493.0619434193    466077000 
4537.9925628535    451777000 
4583.3724884821    438229000 
4629.2062133669    421675000 
4675.4982755006    402901500 
4722.2532582556    393365500 
4769.4757908381    378734000 
4817.1705487465    336620500 
4865.342254234 320172666.66667 
4913.9956767763    333708000 
4963.1356335441 327276333.33333 
5012.7669898795    316061000 
5062.8946597783 306940666.66667 
5113.5236063761    296312500 
5164.6588424398 286392666.66667 
5216.3054308642    276946500 
5268.4684851729 267780666.66667 
5321.1531700246 257222333.33333 
5374.3647017249    248904500 
5428.1083487421 240799666.66667 
5482.3894322295    231675000 
5537.2133265518 222913666.66667 
5592.5854598173    215908000 
5648.5113144155    209045000 
5704.9964275597 201492666.66667 
5762.0463918353    194154000 
5819.6668557536    184660000 
5877.8635243112 180105666.66667 
5936.6421595543 173968333.33333 
5996.0085811498 167884666.66667 
6055.9686669613 162029666.66667 
6116.5283536309 156409666.66667 
6177.6936371672 151073333.33333 
6239.4705735389 145927666.66667 
6301.8652792743 140952333.33333 
6364.883932067 136278333.33333 
6428.5327713877    130985750 
6492.8180991016    121808000 
6557.7462800926    112660000 
6623.3237428935    117322000 
6689.5569803225    113365000 
6756.4525501257 109556333.33333 
6824.0170756269    105590000 
6892.2572463832 101777666.66667 
6961.179818847     98146425 
7030.7916170355 94113733.333333 
7101.0995332059     91342025 
7172.1105285379 88069233.333333 
7243.8316338233     84950175 
7316.2699501615 82216366.666667 
7389.4326496631     79435475 
7463.3269761598     76396800 
7537.9602459214     73509050 
7613.3398483806     71085500 
7689.4732468644     68766700 
7766.367979333     66194250 
7844.0316591264     63834800 
7922.4719757176     61522050 
8001.6966954748     59314400 
8081.7136624296     57148000 
8162.5307990539     55102550 
8244.1561070444     53188650 
8326.5976681148     51338950 
8409.863644796     49332600 
8493.9622812439     47411825 
8578.9019040564     45525075 
8664.6909230969     43375540 
8751.3378323279     43235900 
8838.8512106512     40105650 
8927.2397227577     39971680 
9016.5121199853     38625775 
9106.6772411851     38722940 
9197.744013597     34118650 
9289.721453733     36189640 
9382.6186682703     34826000 
9476.444854953     30922300 
9571.2093035025     32027075 
9666.9213965375     31321620 
9763.5906105029     30178800 
9861.226516608     29006600 
9959.838781774 26977333.333333 
10059.437169592     25665750 
10160.031541288     26027900 
10261.631856701     25059400 
10364.248175268     24218800 
10467.89065702     23359850 
10572.56956359 22323933.333333 
10678.295259226     21372500 
10785.078211819     20354450 
10892.928993937     18317100 
11001.858283876     19109400 
11111.876866715     18616900 
11222.995635382 17843566.666667 
11335.225591736     17118500 
11448.577847653     16561800 
11563.06362613 15897833.333333 
11678.694262391     15263950 
11795.481205015     14782450 
11913.436017065     14144700 
12032.570377236     13656700 
12152.896081008     13236450 
12274.425041818 12734533.333333 
12397.169292236     12254300 
12521.140985159     11789500 
12646.35239501     11322850 
12772.81591896 10352246.666667 
12900.54407815 10424566.666667 
13029.549518932     10097950 
13159.845014121 9739566.6666667 
13291.443464262      9396350 
13424.357898905 9066653.3333333 
13558.601477894 8694073.3333333 
13694.187492673      8338360 
13831.129367599      8055380 
13969.440661275      7785150 
14109.135067888 7475176.6666667 
14250.226418567      7180530 
14392.728682753 6900183.3333333 
14536.65596958 6633965.6666667 
14682.022529276      6382290 
14828.842754569 6142216.6666667 
14977.131182115 5909346.6666667 
15126.902493936      5694120 
15278.171518875 5483473.3333333 
15430.953234064 5279033.3333333 
15585.262766404      5082470 
15741.115394068      4894030 
15898.526548009 4710462.8571429 
16057.511813489      4489450 
16218.086931624      4384480 
16380.26780094      4146490 
16544.07047895      4127165 
16709.511183739      3826400 
16876.606295577      3805180 
17045.372358532      3682140 
17215.826082118      3420975 
17387.984342939      3353300 
17561.864186368      3271700 
17737.482828232      3166660 
17914.857656514      3023755 
18094.006233079      2790300 
18274.94629541      2782370 
18457.695758364      2697750 
18642.272715948      2517910 
18828.695443107      2501535 
19016.982397539      2404880 
19207.152221514      2302220 
19399.223743729      2136815 
19593.215981166      2137485 
19789.148140978      2056640 
19987.039622388      1978475 
20186.910018612      1903930 
20388.779118798      1830980 
20592.666909986      1765120 
20798.593579086      1700440 
21006.579514877      1636090 
21216.645310025      1579755 
21428.811763126      1515520 
21643.099880757      1415680 
21859.530879564      1393215 
22078.12618836      1344980 
22298.907450244      1298960 
22521.896524746      1254830 
22747.115489993 1202373.3333333 
22974.586644893      1152445 
23204.332511342      1114635 
23436.375836456 1069453.3333333 
23670.73959482      1026390 
23907.446990769       993525 
24146.521460676 954333.33333333 
24387.986675283     916856.5 
24631.866542036       880897 
24878.185207456       847122 
25126.967059531 814622.33333333 
25378.236730126       784277 
25632.019097427       754133 
25888.339288402     725286.5 
26147.222681286 678708.33333333 
26408.694908098       669082 
26672.781857179       639495 
26939.509675751 625084.33333333 
27208.904772509 597726.33333333 
27480.993820234       564941 
27755.803758436     554283.5 
28033.361796021       535444 
28313.695413981       512797 
28596.832368121       482203 
28882.800691802 472954.66666667 
29171.62869872       454664 
29463.344985707       436880 
29757.978435564       419962 
30055.55821992       397379 
30356.113802119 383841.33333333 
30659.67494014       373902 
30966.271689541       359969 
31275.934406437       346673 
31588.693750501       333986 
31904.580688006     322261.4 
32223.626494886     308432.5 
32545.862759835       296818 
32871.321387434       279814 
33200.034601308       273250 
33532.034947321       263992 
33867.355296794       255010 
34206.028849762     243572.5 
34548.08913826       235389 
34893.570029642     227580.5 
35242.505729939       217637 
35594.930787238       208229 
35950.880095111     199314.5 
36310.388896062       192902 
36673.492785022       186753 
37040.227712872     176901.5 
37410.629990001     169119.5 
37784.736289901     164552.5 
38162.5836528       158011 
38544.209489328     151784.5 
38929.651584221     145492.5 
39318.948100064       140278 
39712.137581064       134352 
40109.258956875       126631 
40510.351546444       124390 
40915.455061908     119930.5 
41324.609612527       114514 
41737.855708653       110969 
42155.234265739       107091 
42576.786608396     103146.5 
43002.55447448     99480.25 
43432.580019225      94928.7 
43866.905819417 91374.866666667 
44305.574877612     87751.65 
44748.630626388     84764.35 
45196.116932652     81846.15 
45648.078101978      78279.8 
46104.558882998     73131.35 
46565.604471828      70988.3 
47031.260516546      69482.7 
47501.573121712     66744.75 
47976.588852929      64577.7 
48456.354741458      61995.1 
48940.918288873      59531.9 
49430.327471761      57197.1 
49924.630746479     54968.85 
50423.877053944 52801.433333333 
50928.115824483      49674.9 
51437.396982728 48749.266666667 
51951.770952555     47079.45 
52471.288662081      45334.8 
52996.001548702 43343.666666667 
53525.961564189      41761.1 
54061.221179831      40260.9 
54601.833391629        38532 
55147.851725545     37135.25 
55699.330242801 35876.266666667 
56256.323545229        34387 
56818.886780681 32897.333333333 
57387.075648488      31632.1 
57960.946404973 30353.566666667 
58540.555869022      28604.2 
59125.961427713        27789 
59717.22104199 26897.233333333 
60314.39325241 25880.866666667 
60917.537184934 24888.066666667 
61526.712556783 23942.166666667 
62141.979682351 22989.766666667 
62763.399479174      22012.3 
63391.033473966      21361.5 
64024.943808706 20416.528571429 
64665.193246793      19710.4 
65311.845179261      19003.8 
65964.963631053     18108.55 
66624.613267364      17469.4 
67290.859400038      16687.8 
67963.767994038      16073.2 
68643.405673978      15537.6 
69329.839730718     15012.05 
70023.138128025     14343.95 
70723.369509305     13712.45 
71430.603204399      13259.9 
72144.909236443      12828.2 
72866.358328807      12278.6 
73595.021912095      11726.4 
74330.972131216     10840.65 
75074.281852528     10736.95 
75825.024671053      10460.8 
76583.274917764      10139.5 
77349.107666942     9717.565 
78122.598743611      9339.06 
78903.824731047     8968.455 
79692.862978358     8615.725 
80489.791608141     8280.325 
81294.689524223      7941.65 
82107.636419465     7656.985 
82928.712783659     7367.565 
83757.999911496       7091.2 
84595.579910611 6764.6266666667 
85441.535709717     6450.425 
86295.951066814     6186.995 
87158.910577482     5887.475 
88030.499683257     5778.725 
88910.80468009      5578.97 
89799.912726891 5336.3966666667 
90697.91185416      5105.72 
91604.890972701      4930.51 
92520.939882428      4718.89 
93446.149281253     4486.035 
94380.610774065      4371.68 
95324.416881806 4194.2866666667 
96277.661050624     4023.335 
97240.43766113 3861.5966666667 
98212.842037741      3707.35 
99194.970458119     3589.665 
100186.9201627       3504.3 
199060.83304441      218.814 
399467.9878358      13.4733 
594753.39981818       2.6392 
793700.71765891     0.830455 
997811.18987739     0.338703 
1193529.3359837     0.162755 
1399507.0114645    0.0875763 
