#  WAVELENGTH	        FLUX	
#  (ANGSTROM)	(ERG/CM2/S/A)	
############	############	
446.66681559138  1.32422E-24 
455.64481858477  5.45955E-24 
469.4513122327  2.46401E-23 
478.88728360858   1.0401E-22 
488.51291800911  4.12724E-22 
498.3320276611  1.54324E-21 
503.31534793771  4.40566E-21 
508.34850141708  1.04324E-20 
518.56630629557  2.73227E-20 
528.98948905211  8.77235E-20 
539.62217778206  2.64874E-19 
545.01839955988  7.75155E-19 
555.97326939103  2.16488E-18 
567.14833210579   5.8163E-18 
578.54801358112   1.4899E-17 
584.33349371693  3.76707E-17 
596.07859694064  9.11552E-17 
608.05977673914  2.13778E-16 
614.14037450653  4.86575E-16 
626.48459603412  1.07656E-15 
639.0769364144   2.3198E-15 
645.46770577855  4.87226E-15 
651.92238283633  8.66664E-15 
658.44160666469  1.41662E-14 
671.67628295866  2.80432E-14 
678.39304578824   5.4314E-14 
692.02874600859  1.03022E-13 
698.94903346867  1.91463E-13 
712.99790904139  3.70693E-13 
720.12788813181  6.62784E-13 
734.60245868325  1.10183E-12 
741.94848327009   1.9078E-12 
749.36796810279  3.25077E-12 
764.43026426165   5.4543E-12 
772.07456690427  9.01644E-12 
779.79531257331  1.46969E-11 
787.59326569905  2.35888E-11 
803.4238903396  3.74693E-11 
811.45812924299  5.87251E-11 
819.57271053542  9.09079E-11 
827.76843764078  1.39102E-10 
844.40658323736  2.10455E-10 
852.85064906973  3.14965E-10 
861.37915556043  4.66447E-10 
869.99294711603  6.83614E-10 
878.69287658719  9.92877E-10 
887.47980535306    1.4281E-9 
896.3546034066   2.03516E-9 
914.37133093507   1.38048E-5 
923.51504424442    4.7464E-5 
932.75019468686   6.74449E-5 
942.07769663373   9.73651E-5 
951.49847360007  0.000145913 
961.01345833607  0.000204757 
970.62359291943  0.000277896 
980.32982884862  0.000388447 
990.13312713711  0.000529161 
1000.0344584085     0.000743 
1010.0348029926   0.00099925 
1020.1351510225   0.00132756 
1030.3365025327   0.00181201 
1040.639867558    0.0024192 
1051.0462662336   0.00320304 
1061.556728896   0.00419137 
1072.1722961849   0.00550446 
1082.8940191468   0.00717988 
1093.7229593382   0.00925091 
1104.6601889316   0.05791845 
1115.7067908209     0.132097 
1126.8638587291      0.19142 
1138.1324973164     0.238028 
1149.5138222896     0.248708 
1161.0089605125     0.301639 
1172.6190501176     0.310417 
1184.3452406188    0.3115145 
1196.188693025      0.12951 
1208.1505799552    0.0842384 
1220.2320857548     0.181679 
1232.4344066123     0.360695 
1244.7587506785    1.0813415 
1257.2063381852      2.04995 
1269.7784015671      3.28591 
1282.4761855828      6.31904 
1295.3009474386      8.37509 
1308.253956913      12.6601 
1321.3364964821      16.5906 
1334.5498614469      23.5577 
1347.8953600614      30.5812 
1361.374313662      37.8443 
1374.9880567986     47.33215 
1388.7379373666      61.0117 
1402.6253167403     77.00005 
1416.6515699077      92.8976 
1430.8180856068 111.44005882353 
1445.1262664628      139.012 
1459.5775291275      160.018 
1474.1733044187      193.627 
1488.9150374629      246.111 
1503.8041878376 292.04309090909 
1518.8422297159      370.699 
1534.0306520131     663.5845 
1549.3709585332      837.116 
1564.8646681186     959.8415 
1580.5133147997      1372.28 
1596.3184479477         1548 
1612.2816324272     1763.195 
1628.4044487515      2287.95 
1644.688493239       2457.5 
1661.1353781714 3216.8404545455 
1677.7467319531      5382.47 
1694.5241992726    10524.275 
1711.4694412654     35023.05 
1728.584135678      59682.7 
1745.8699770348      89869.1 
1763.3286768051     85089.15 
1780.9619635732    133555.45 
1798.7715832089       128942 
1816.759299041       127748 
1834.9268920314     145393.5 
1853.2761609517     201861.5 
1871.8089225613       233528 
1890.5270117869       281647 
1909.4322819047     277664.5 
1928.5266047238       247962 
1947.811870771 442081.18181818 
1967.2899894787       458418 
1986.9628893735 472873.52380952 
2006.8325182673       436745 
2026.9008434499     589943.5 
2047.1698518844     560658.5 
2067.6415504033     813008.6 
2088.3179659073       892710 
2109.2011455664     948640.5 
2130.293157022       881574 
2151.5960885923       990351 
2173.1120494782    1040812.5 
2194.843169973 1130808.6666667 
2216.7916016727      1162630 
2238.9595176894      1097839 
2261.3491128663      1086301 
2283.962603995 1281293.3333333 
2306.8022300349      1250125 
2329.8702523353       637903 
2353.1689548586 808042.33333333 
2376.7006444072       445268 
2400.4676508513       637660 
2424.4723273598 1461573.3333333 
2448.7170506334      1593420 
2473.2042211397 1295143.3333333 
2497.9362633511 1495546.5217391 
2522.9156259846 1094670.9259259 
2548.1447822445      1424645 
2573.6262300669 1366433.3333333 
2599.3624923676 1048880.6666667 
2625.3561172913      2302735 
2651.6096784642 2668823.3333333 
2678.1257752488      2527905 
2704.9070330013 2291506.6666667 
2731.9561033313      1759040 
2759.2756643647      2065160 
2786.8684210083       521928 
2814.7371052184      2824270 
2842.8844762706 2749406.6666667 
2871.3133210333 3142083.3333333 
2900.0264542436      3798370 
2929.026718786      3582985 
2958.3169859739      3872150 
2987.9001558336      3984450 
3017.779157392      4083800 
3047.9569489659      4221245 
3078.4365184556      4407250 
3109.2208836401      4299115 
3140.3130924765      4499525 
3171.7162234013      4190410 
3203.4333856353      4312605 
3235.4677194916      4613150 
3267.8223966866      4952525 
3300.5006206534      5079550 
3333.50562686      4983360 
3366.8406831286      4882990 
3400.5090899598      5185090 
3434.5141808594      5294010 
3468.859322668      5248390 
3503.5479158947      5409340 
3538.5833950537      5559250 
3573.9692290042      5322070 
3609.7089212942      5507568 
3645.8060105072 5830473.3333333 
3682.2640706123      6515060 
3719.0867113184      8338595 
3756.2775784316      9908200 
3793.8403542159     10427310 
3831.778757758     11640750 
3870.0965453356      9927330 
3908.797510789      9539945 
3947.8854858969      9383420 
3987.3643407558     12212550 
4027.2379841634     12332450 
4067.510364005     12167700 
4108.1854676451     11616600 
4149.2673223215 12433666.666667 
4190.7599955447     12174000 
4232.6675955002     12213700 
4274.9942714552     11452300 
4317.7442141697     11131400 
4360.9216563114     12172400 
4404.5308728746     12008850 
4448.5761816033     12069400 
4493.0619434193     12191800 
4537.9925628535     12118750 
4583.3724884821     12096650 
4629.2062133669 12108233.333333 
4675.4982755006     11921950 
4722.2532582556     12066500 
4769.4757908381 11927633.333333 
4817.1705487465     11471100 
4865.342254234     10938910 
4913.9956767763     11375750 
4963.1356335441 11188466.666667 
5012.7669898795     11173350 
5062.8946597783 11137833.333333 
5113.5236063761     10816450 
5164.6588424398 10535933.333333 
5216.3054308642     10670150 
5268.4684851729 10483233.333333 
5321.1531700246 10419733.333333 
5374.3647017249     10300800 
5428.1083487421     10276500 
5482.3894322295 10191433.333333 
5537.2133265518     10067370 
5592.5854598173      9978525 
5648.5113144155 9855886.6666667 
5704.9964275597      9779290 
5762.0463918353 9666446.6666667 
5819.6668557536 9528226.6666667 
5877.8635243112 9341893.3333333 
5936.6421595543 9264536.6666667 
5996.0085811498      9114610 
6055.9686669613      8988810 
6116.5283536309 8733063.3333333 
6177.6936371672 8705673.3333333 
6239.4705735389 8541496.6666667 
6301.8652792743      8435590 
6364.883932067 8315933.3333333 
6428.5327713877    8137332.5 
6492.8180991016 7967476.6666667 
6557.7462800926 7518993.3333333 
6623.3237428935 7833976.6666667 
6689.5569803225      7706885 
6756.4525501257 7574466.6666667 
6824.0170756269      7442115 
6892.2572463832 7318483.3333333 
6961.179818847      7185005 
7030.7916170355 7068086.6666667 
7101.0995332059      6924740 
7172.1105285379 6791506.6666667 
7243.8316338233      6691730 
7316.2699501615 6583693.3333333 
7389.4326496631    6445312.5 
7463.3269761598      6334240 
7537.9602459214    6225007.5 
7613.3398483806 6107353.3333333 
7689.4732468644      5999710 
7766.367979333    5887317.5 
7844.0316591264      5779995 
7922.4719757176    5660532.5 
8001.6966954748    5558177.5 
8081.7136624296    5456372.5 
8162.5307990539      5329360 
8244.1561070444      5244140 
8326.5976681148      5119870 
8409.863644796      5013872 
8493.9622812439    4776292.5 
8578.9019040564    4862452.5 
8664.6909230969      4664532 
8751.3378323279    4735987.5 
8838.8512106512      4575400 
8927.2397227577      4513100 
9016.5121199853    4425692.5 
9106.6772411851      4386898 
9197.744013597    4182607.5 
9289.721453733      4214406 
9382.6186682703      4099896 
9476.444854953      3955648 
9571.2093035025    3930217.5 
9666.9213965375      3853630 
9763.5906105029      3776012 
9861.226516608      3687754 
9959.838781774 3599974.6666667 
10059.437169592      3487290 
10160.031541288      3457565 
10261.631856701      3380625 
10364.248175268      3312620 
10467.89065702      3231330 
10572.56956359      3135440 
10678.295259226      3055425 
10785.078211819      2986365 
10892.928993937      2866695 
11001.858283876      2883605 
11111.876866715      2821005 
11222.995635382      2743410 
11335.225591736      2672485 
11448.577847653      2629835 
11563.06362613 2549746.6666667 
11678.694262391      2487335 
11795.481205015      2431010 
11913.436017065 2381163.3333333 
12032.570377236      2324440 
12152.896081008      2288360 
12274.425041818 2231333.3333333 
12397.169292236      2180645 
12521.140985159 2125413.3333333 
12646.35239501      2079205 
12772.81591896 1985816.6666667 
12900.54407815      1974930 
13029.549518932      1929390 
13159.845014121      1884610 
13291.443464262      1844080 
13424.357898905 1803736.6666667 
13558.601477894 1754333.3333333 
13694.187492673      1704590 
13831.129367599      1671885 
13969.440661275 1635206.6666667 
14109.135067888 1591483.3333333 
14250.226418567      1550910 
14392.728682753      1502460 
14536.65596958      1471799 
14682.022529276 1432576.6666667 
14828.842754569 1396566.6666667 
14977.131182115 1357023.3333333 
15126.902493936 1326373.3333333 
15278.171518875 1286826.6666667 
15430.953234064      1255600 
15585.262766404 1222903.3333333 
15741.115394068 1184866.6666667 
15898.526548009 1177978.5714286 
16057.511813489      1107980 
16218.086931624      1118590 
16380.26780094      1042650 
16544.07047895      1059060 
16709.511183739     984778.5 
16876.606295577       984539 
17045.372358532       952445 
17215.826082118       887738 
17387.984342939     873623.5 
17561.864186368       849366 
17737.482828232     825637.5 
17914.857656514       793814 
18094.006233079     741364.5 
18274.94629541     732926.5 
18457.695758364       711875 
18642.272715948       671745 
18828.695443107     661970.5 
19016.982397539     641386.5 
19207.152221514       616652 
19399.223743729     579158.5 
19593.215981166     572461.5 
19789.148140978       552579 
19987.039622388     533588.5 
20186.910018612     513913.5 
20388.779118798     496742.5 
20592.666909986       478896 
20798.593579086     462455.5 
21006.579514877       446613 
21216.645310025       431355 
21428.811763126       417178 
21643.099880757 393335.66666667 
21859.530879564       383361 
22078.12618836       370885 
22298.907450244     359134.5 
22521.896524746     346975.5 
22747.115489993       333676 
22974.586644893       320808 
23204.332511342     310802.5 
23436.375836456 298921.66666667 
23670.73959482     287311.5 
23907.446990769       278569 
24146.521460676 267982.66666667 
24387.986675283     257861.5 
24631.866542036 248389.33333333 
24878.185207456       238923 
25126.967059531 230485.33333333 
25378.236730126       223298 
25632.019097427 213920.66666667 
25888.339288402       207913 
26147.222681286 196190.33333333 
26408.694908098 192279.33333333 
26672.781857179       183064 
26939.509675751       179801 
27208.904772509 172543.66666667 
27480.993820234 163656.33333333 
27755.803758436       160160 
28033.361796021       154907 
28313.695413981       148852 
28596.832368121 141413.66666667 
28882.800691802 137626.33333333 
29171.62869872       132401 
29463.344985707 127462.66666667 
29757.978435564 122712.66666667 
30055.55821992 117198.33333333 
30356.113802119       113532 
30659.67494014 109717.33333333 
30966.271689541 105701.33333333 
31275.934406437 101994.33333333 
31588.693750501 98430.166666667 
31904.580688006     95109.06 
32223.626494886     91180.95 
32545.862759835      88033.8 
32871.321387434     84189.65 
33200.034601308      81156.8 
33532.034947321      78421.8 
33867.355296794     75824.55 
34206.028849762      72603.6 
34548.08913826      70250.1 
34893.570029642     68011.95 
35242.505729939      65153.3 
35594.930787238     62442.55 
35950.880095111     59863.95 
36310.388896062      57901.6 
36673.492785022     56145.45 
37040.227712872      53832.4 
37410.629990001     51416.35 
37784.736289901     49685.95 
38162.5836528      47794.4 
38544.209489328      45959.7 
38929.651584221     44054.95 
39318.948100064     42524.95 
39712.137581064     40841.75 
40109.258956875      38996.4 
40510.351546444      37920.3 
40915.455061908      36543.8 
41324.609612527      35031.2 
41737.855708653      33918.8 
42155.234265739     32730.55 
42576.786608396     31572.45 
43002.55447448     30454.55 
43432.580019225      29238.1 
43866.905819417 28113.166666667 
44305.574877612      26931.4 
44748.630626388     26028.75 
45196.116932652     25157.15 
45648.078101978 24120.066666667 
46104.558882998      22991.4 
46565.604471828     22255.75 
47031.260516546      21490.1 
47501.573121712     20635.65 
47976.588852929      19981.6 
48456.354741458 19202.066666667 
48940.918288873     18457.75 
49430.327471761      17752.2 
49924.630746479     17075.65 
50423.877053944      16434.9 
50928.115824483        15745 
51437.396982728      15238.1 
51951.770952555      14683.3 
52471.288662081      14147.5 
52996.001548702      13548.3 
53525.961564189      13050.1 
54061.221179831 12606.833333333 
54601.833391629 12079.466666667 
55147.851725545      11645.9 
55699.330242801 11264.333333333 
56256.323545229        10809 
56818.886780681      10359.9 
57387.075648488      9962.88 
57960.946404973 9571.7633333333 
58540.555869022      9171.23 
59125.961427713 8824.5133333333 
59717.22104199       8506.2 
60314.39325241 8184.0333333333 
60917.537184934       7876.1 
61526.712556783      7584.51 
62141.979682351 7303.6733333333 
62763.399479174      7022.26 
63391.033473966 6783.7633333333 
64024.943808706 6490.0614285714 
64665.193246793       6269.5 
65311.845179261     6050.545 
65964.963631053     5771.335 
66624.613267364      5571.91 
67290.859400038      5372.76 
67963.767994038      5140.75 
68643.405673978      4968.16 
69329.839730718     4803.215 
70023.138128025      4593.88 
70723.369509305     4395.525 
71430.603204399      4253.91 
72144.909236443     4117.095 
72866.358328807     3945.255 
73595.021912095      3781.28 
74330.972131216     3602.475 
75074.281852528         3478 
75825.024671053       3372.1 
76583.274917764      3270.45 
77349.107666942      3138.93 
78122.598743611     3017.195 
78903.824731047       2899.7 
79692.862978358     2787.865 
80489.791608141      2681.34 
81294.689524223      2577.72 
82107.636419465     2483.275 
82928.712783659     2390.985 
83757.999911496     2303.055 
84595.579910611 2199.0066666667 
85441.535709717      2100.26 
86295.951066814      2023.29 
87158.910577482      1950.72 
88030.499683257      1885.39 
88910.80468009     1819.975 
89799.912726891 1742.2466666667 
90697.91185416     1668.325 
91604.890972701      1612.24 
92520.939882428 1545.3533333333 
93446.149281253      1479.93 
94380.610774065     1433.265 
95324.416881806      1375.39 
96277.661050624      1320.45 
97240.43766113 1268.2266666667 
98212.842037741     1218.365 
99194.970458119     1180.505 
100186.9201627      1152.92 
199060.83304441      75.1427 
399467.9878358      4.75033 
594753.39981818     0.937295 
793700.71765891     0.295539 
997811.18987739      0.12058 
1193529.3359837     0.057925 
1399507.0114645    0.0311532 
