#  WAVELENGTH	        FLUX	
#  (ANGSTROM)	(ERG/CM2/S/A)	
############	############	
        90.9  2.05841E-17 
    92.72709  1.18618E-16 
95.53681355409  6.23313E-16 
97.457103506527  1.65902E-15 
99.415991287008   5.0983E-15 
101.41425271188  1.98786E-14 
103.45267919139  5.30843E-14 
105.53207804313  1.37296E-13 
107.6532728118  4.00463E-13 
109.81710359532   1.4984E-12 
113.14467165136  7.94189E-12 
117.73879903054  4.17404E-11 
120.10534889105  1.76609E-10 
123.7446610678  6.93183E-10 
126.23192875526   1.63892E-9 
127.49424804281   2.63218E-9 
130.05688242847   5.55464E-9 
131.35745125276    1.0716E-8 
132.67102576529   1.77825E-8 
135.33771338317   4.31737E-8 
139.43858143639    1.1862E-7 
142.24129692326   3.41802E-7 
146.55135046134   1.05205E-6 
150.99200293167    2.9848E-6 
154.02694219059   8.93972E-6 
158.69411256591   2.19353E-5 
161.88386422848   4.72434E-5 
165.13772989948  0.000118574 
170.14156825316   0.00030461 
171.84298393569  0.000585363 
175.2970279128   0.00116894 
178.82049817385   0.00227683 
180.60870315558   0.00303336 
186.0813274699   0.00686123 
189.82156215205    0.0163307 
193.6369755513    0.0267478 
197.52907875988    0.0559928 
201.49941324296    0.0958032 
203.51440737539     0.156349 
209.68109743327     0.350958 
216.03464436659     0.777779 
218.19499081026      1.26029 
222.58071012555      1.91058 
224.8065172268      3.08163 
229.32512822306      3701.06 
233.93456330034      12976.7 
238.63664802268      22607.1 
245.86757709442      39568.1 
250.80951539401      63701.4 
255.85078665343      68997.8 
258.40929451997       132034 
263.60332133982       201846 
266.23935455322       287589 
271.59076557974       382133 
277.04973996789       470740 
282.61843974125       847474 
288.29907038004      1161680 
294.09388169468      1451180 
300.00516871675      1593150 
306.03527260795      2737870 
315.30844740325      6553400 
324.86260866801      9120260 
334.70627057326     14360700 
344.8482052779     20647300 
355.29745074603     28282600 
362.43892950602     40404800 
373.42119150899     49528700 
384.7362270329     66109900 
392.46942519626     85808400 
404.36164124913    106323000 
412.48931023824    130443000 
420.78034537403    148872000 
429.23803031605    172033000 
437.8657147254    212965000 
446.66681559138    251838000 
455.64481858477    284524000 
469.4513122327    335663000 
478.88728360858    390663000 
488.51291800911    440857000 
498.3320276611    518758000 
503.31534793771   1962840000 
508.34850141708   7494840000 
518.56630629557   7063410000 
528.98948905211   6657880000 
539.62217778206   6065160000 
545.01839955988   6825730000 
555.97326939103   7807200000 
567.14833210579   8054640000 
578.54801358112   7462250000 
584.33349371693   7925520000 
596.07859694064   7393630000 
608.05977673914   7959640000 
614.14037450653   8766140000 
626.48459603412   8698300000 
639.0769364144   8668950000 
645.46770577855   8801130000 
651.92238283633   8414300000 
658.44160666469   8858870000 
671.67628295866   9174640000 
678.39304578824   8437450000 
692.02874600859   9419330000 
698.94903346867   8831110000 
712.99790904139   9806690000 
720.12788813181   9730660000 
734.60245868325   9896900000 
741.94848327009   9828490000 
749.36796810279   9830250000 
764.43026426165   9896150000 
772.07456690427  10035700000 
779.79531257331  10306800000 
787.59326569905  10311400000 
803.4238903396  10223100000 
811.45812924299  10283400000 
819.57271053542  10522100000 
827.76843764078   9709710000 
844.40658323736  10457900000 
852.85064906973  10486800000 
861.37915556043  10667100000 
869.99294711603  10723900000 
878.69287658719  10807100000 
887.47980535306  10882500000 
896.3546034066  10750500000 
914.37133093507  12345500000 
923.51504424442  40519600000 
932.75019468686  60498400000 
942.07769663373  80469400000 
951.49847360007  85993100000 
961.01345833607  96049000000 
970.62359291943  57926800000 
980.32982884862  87020200000 
990.13312713711  81040500000 
1000.0344584085  82621300000 
1010.0348029926  82654300000 
1020.1351510225  64364500000 
1030.3365025327  79251600000 
1040.639867558  83920600000 
1051.0462662336  81727900000 
1061.556728896  75510500000 
1072.1722961849  76006100000 
1082.8940191468  71088300000 
1093.7229593382  74320300000 
1104.6601889316  70775300000 
1115.7067908209  64039300000 
1126.8638587291  67641600000 
1138.1324973164  65034300000 
1149.5138222896  63531700000 
1161.0089605125  62232100000 
1172.6190501176  50093200000 
1184.3452406188  57196650000 
1196.188693025  54279800000 
1208.1505799552  41896000000 
1220.2320857548  52717900000 
1232.4344066123  53895500000 
1244.7587506785  51982050000 
1257.2063381852  51642500000 
1269.7784015671  51000100000 
1282.4761855828  48921800000 
1295.3009474386  47268600000 
1308.253956913  47548000000 
1321.3364964821  46041200000 
1334.5498614469  44707750000 
1347.8953600614  43592200000 
1361.374313662  42456300000 
1374.9880567986  41193900000 
1388.7379373666  37076200000 
1402.6253167403  37506250000 
1416.6515699077  36086300000 
1430.8180856068 36532917647.059 
1445.1262664628 35380515384.615 
1459.5775291275  34486600000 
1474.1733044187  33713650000 
1488.9150374629  32610800000 
1503.8041878376 31794986363.636 
1518.8422297159  30653500000 
1534.0306520131  27606550000 
1549.3709585332  26297600000 
1564.8646681186  27101250000 
1580.5133147997  26941200000 
1596.3184479477  25298900000 
1612.2816324272  24556150000 
1628.4044487515  24329700000 
1644.688493239  23770850000 
1661.1353781714 23403763636.364 
1677.7467319531  23335800000 
1694.5241992726  22592150000 
1711.4694412654  21447650000 
1728.584135678  21305000000 
1745.8699770348  20645400000 
1763.3286768051  20228550000 
1780.9619635732  19664700000 
1798.7715832089  19067450000 
1816.759299041  18537800000 
1834.9268920314  18101400000 
1853.2761609517  17402750000 
1871.8089225613  16819950000 
1890.5270117869  16296200000 
1909.4322819047  15626850000 
1928.5266047238  15475350000 
1947.811870771 14807772727.273 
1967.2899894787 14633741176.471 
1986.9628893735 14075980952.381 
2006.8325182673  13860000000 
2026.9008434499  13371050000 
2047.1698518844  11030350000 
2067.6415504033  11283430000 
2088.3179659073  12108200000 
2109.2011455664  11955950000 
2130.293157022  11617500000 
2151.5960885923  11295150000 
2173.1120494782  11010250000 
2194.843169973  10659000000 
2216.7916016727  10322150000 
2238.9595176894   9956310000 
2261.3491128663   9750975000 
2283.962603995   9256950000 
2306.8022300349   9073055000 
2329.8702523353   8826430000 
2353.1689548586   8523200000 
2376.7006444072   8147160000 
2400.4676508513   8006560000 
2424.4723273598   7740690000 
2448.7170506334   7482655000 
2473.2042211397 7041366666.6667 
2497.9362633511 6882121739.1304 
2522.9156259846 6762158148.1481 
2548.1447822445   6553945000 
2573.6262300669 6348333333.3333 
2599.3624923676 6123796666.6667 
2625.3561172913   5928155000 
2651.6096784642 5729823333.3333 
2678.1257752488   5554975000 
2704.9070330013 5386113333.3333 
2731.9561033313 5178643333.3333 
2759.2756643647 5005723333.3333 
2786.8684210083   4843955000 
2814.7371052184   4705610000 
2842.8844762706   4553270000 
2871.3133210333 4394016666.6667 
2900.0264542436   4263530000 
2929.026718786   4111200000 
2958.3169859739   3977440000 
2987.9001558336   3838435000 
3017.779157392   3707500000 
3047.9569489659   3589775000 
3078.4365184556   3463290000 
3109.2208836401   3358215000 
3140.3130924765   3212395000 
3171.7162234013   3095600000 
3203.4333856353   3002975000 
3235.4677194916   2917470000 
3267.8223966866   2823755000 
3300.5006206534   2709350000 
3333.50562686   2621180000 
3366.8406831286   2546345000 
3400.5090899598   2442230000 
3434.5141808594   2359610000 
3468.859322668   2294080000 
3503.5479158947   2209135000 
3538.5833950537   2127225000 
3573.9692290042   2059460000 
3609.7089212942   1994192000 
3645.8060105072   1873520000 
3682.2640706123   1802495000 
3719.0867113184   1739035000 
3756.2775784316   1745210000 
3793.8403542159   1715635000 
3831.778757758   1771285000 
3870.0965453356   1551350000 
3908.797510789   1697735000 
3947.8854858969   1544425000 
3987.3643407558   1581745000 
4027.2379841634   1515155000 
4067.510364005   1452460000 
4108.1854676451   1351405000 
4149.2673223215 1364873333.3333 
4190.7599955447   1308680000 
4232.6675955002   1264295000 
4274.9942714552   1221315000 
4317.7442141697   1107605000 
4360.9216563114   1134660000 
4404.5308728746   1104930000 
4448.5761816033 1054696666.6667 
4493.0619434193   1019845000 
4537.9925628535    985046500 
4583.3724884821    955892500 
4629.2062133669 913806666.66667 
4675.4982755006    873412500 
4722.2532582556    857031500 
4769.4757908381    824933000 
4817.1705487465    780929000 
4865.342254234 739369333.33333 
4913.9956767763    730579500 
4963.1356335441 707251333.33333 
5012.7669898795    682239000 
5062.8946597783 658960666.66667 
5113.5236063761    635339500 
5164.6588424398    613017000 
5216.3054308642    591522000 
5268.4684851729 571032666.66667 
5321.1531700246    547622000 
5374.3647017249    527600000 
5428.1083487421    511113000 
5482.3894322295 490653333.33333 
5537.2133265518 471176666.66667 
5592.5854598173    455743000 
5648.5113144155 440234333.33333 
5704.9964275597    418932000 
5762.0463918353 403214666.66667 
5819.6668557536 386167666.66667 
5877.8635243112    375196000 
5936.6421595543    362850000 
5996.0085811498    350108000 
6055.9686669613 337349333.33333 
6116.5283536309    325102000 
6177.6936371672    313474000 
6239.4705735389 302327333.33333 
6301.8652792743 291667666.66667 
6364.883932067 281464333.33333 
6428.5327713877    270143000 
6492.8180991016 257743666.66667 
6557.7462800926 242787333.33333 
6623.3237428935 241633333.33333 
6689.5569803225    232320000 
6756.4525501257 223844666.66667 
6824.0170756269    215284500 
6892.2572463832 207203666.66667 
6961.179818847    199471000 
7030.7916170355 191355666.66667 
7101.0995332059    184999750 
7172.1105285379    178213000 
7243.8316338233    171633250 
7316.2699501615 165748666.66667 
7389.4326496631    159890750 
7463.3269761598    153482250 
7537.9602459214    147371000 
7613.3398483806 142353666.66667 
7689.4732468644    137492750 
7766.367979333    132194250 
7844.0316591264    127211750 
7922.4719757176    122405250 
8001.6966954748    117794000 
8081.7136624296    113328750 
8162.5307990539    108869000 
8244.1561070444    104689250 
8326.5976681148    100862350 
8409.863644796     96771080 
8493.9622812439     92915500 
8578.9019040564     89518525 
8664.6909230969     85496320 
8751.3378323279     84359475 
8838.8512106512     79515900 
8927.2397227577     77676840 
9016.5121199853     75108525 
9106.6772411851     73400660 
9197.744013597     67955450 
9289.721453733     68067540 
9382.6186682703     65365900 
9476.444854953     60739620 
9571.2093035025     60421825 
9666.9213965375     58369240 
9763.5906105029     56156380 
9861.226516608     53986800 
9959.838781774 51449813.333333 
10059.437169592     49084450 
10160.031541288     48284750 
10261.631856701     46437400 
10364.248175268     44790800 
10467.89065702     43160650 
10572.56956359 41213266.666667 
10678.295259226     39396650 
10785.078211819     37839400 
10892.928993937     35420350 
11001.858283876     35332950 
11111.876866715     34186950 
11222.995635382 32736133.333333 
11335.225591736     31363400 
11448.577847653     30317400 
11563.06362613     29056700 
11678.694262391     27885350 
11795.481205015     26979400 
11913.436017065     25844700 
12032.570377236     24873500 
12152.896081008     24088850 
12274.425041818     23152300 
12397.169292236     22257850 
12521.140985159 21398666.666667 
12646.35239501     20597600 
12772.81591896     19365600 
12900.54407815 18917833.333333 
13029.549518932     18250150 
13159.845014121 17586766.666667 
13291.443464262     16951150 
13424.357898905 16342666.666667 
13558.601477894 15653833.333333 
13694.187492673     14997900 
13831.129367599     14476800 
13969.440661275 13979566.666667 
14109.135067888 13409933.333333 
14250.226418567 12868866.666667 
14392.728682753 12354766.666667 
14536.65596958     11864180 
14682.022529276     11398700 
14828.842754569 10960066.666667 
14977.131182115 10534966.666667 
15126.902493936 10137633.333333 
15278.171518875      9750810 
15430.953234064 9381036.6666667 
15585.262766404      9027640 
15741.115394068 8690113.3333333 
15898.526548009 8366555.7142857 
16057.511813489      7974780 
16218.086931624      7780860 
16380.26780094      7389730 
16544.07047895      7268335 
16709.511183739      6831460 
16876.606295577      6694820 
17045.372358532      6455325 
17215.826082118      6087410 
17387.984342939      5897265 
17561.864186368      5709940 
17737.482828232      5523075 
17914.857656514      5285205 
18094.006233079      4973255 
18274.94629541      4847090 
18457.695758364      4692740 
18642.272715948      4465650 
18828.695443107      4359955 
19016.982397539      4177965 
19207.152221514      4012810 
19399.223743729      3785045 
19593.215981166      3703155 
19789.148140978      3558445 
19987.039622388      3420755 
20186.910018612      3289635 
20388.779118798      3162345 
20592.666909986      3045680 
20798.593579086      2932215 
21006.579514877      2820295 
21216.645310025      2720640 
21428.811763126      2620345 
21643.099880757 2473243.3333333 
21859.530879564      2394230 
22078.12618836      2310005 
22298.907450244      2229595 
22521.896524746      2152615 
22747.115489993 2061036.6666667 
22974.586644893      1973905 
23204.332511342      1907965 
23436.375836456 1829296.6666667 
23670.73959482      1754380 
23907.446990769      1697235 
24146.521460676 1629036.6666667 
24387.986675283      1564050 
24631.866542036 1501896.6666667 
24878.185207456      1443725 
25126.967059531 1387966.6666667 
25378.236730126      1336805 
25632.019097427 1283953.3333333 
25888.339288402      1236620 
26147.222681286 1172473.3333333 
26408.694908098 1139173.3333333 
26672.781857179      1088505 
26939.509675751      1058980 
27208.904772509 1013348.3333333 
27480.993820234       962338 
27755.803758436       936607 
28033.361796021       904088 
28313.695413981       866735 
28596.832368121 822811.33333333 
28882.800691802 797920.66666667 
29171.62869872 766019.66666667 
29463.344985707 735710.66666667 
29757.978435564 706875.66666667 
30055.55821992       674443 
30356.113802119       650528 
30659.67494014       628441 
30966.271689541 604744.33333333 
31275.934406437       582154 
31588.693750501       560602 
31904.580688006     540688.4 
32223.626494886     517242.5 
32545.862759835       498567 
32871.321387434     475437.5 
33200.034601308     458817.5 
33532.034947321       442811 
33867.355296794       427515 
34206.028849762     408077.5 
34548.08913826       394191 
34893.570029642     380965.5 
35242.505729939       364122 
35594.930787238     348195.5 
35950.880095111       333140 
36310.388896062       322337 
36673.492785022       311946 
37040.227712872       297316 
37410.629990001       284331 
37784.736289901       274422 
38162.5836528     263252.5 
38544.209489328       252698 
38929.651584221       242169 
39318.948100064     233022.5 
39712.137581064     223566.5 
40109.258956875     212691.5 
40510.351546444     206872.5 
40915.455061908     198955.5 
41324.609612527     190564.5 
41737.855708653       184261 
42155.234265739       177470 
42576.786608396     170891.5 
43002.55447448       164753 
43432.580019225       157944 
43866.905819417       151604 
44305.574877612       145126 
44748.630626388       140092 
45196.116932652       135235 
45648.078101978       129457 
46104.558882998       122565 
46565.604471828       118604 
47031.260516546 114843.33333333 
47501.573121712       110117 
47976.588852929     106516.5 
48456.354741458 102226.66666667 
48940.918288873      98136.9 
49430.327471761 94262.566666667 
49924.630746479      90564.3 
50423.877053944 87057.433333333 
50928.115824483     82856.65 
51437.396982728 80498.666666667 
51951.770952555     77488.55 
52471.288662081 74598.066666667 
52996.001548702 71302.433333333 
53525.961564189      68682.6 
54061.221179831 66201.666666667 
54601.833391629 63359.133333333 
55147.851725545      61056.8 
55699.330242801      58952.6 
56256.323545229 56491.566666667 
56818.886780681 54094.033333333 
57387.075648488      51942.8 
57960.946404973      49845.2 
58540.555869022      47482.2 
59125.961427713      45807.2 
59717.22104199      44152.8 
60314.39325241      42434.5 
60917.537184934 40798.466666667 
61526.712556783 39240.033333333 
62141.979682351 37743.266666667 
62763.399479174 36196.566666667 
63391.033473966        34991 
64024.943808706 33436.442857143 
64665.193246793        32273 
65311.845179261     31111.85 
65964.963631053     29638.95 
66624.613267364      28589.2 
67290.859400038        27470 
67963.767994038      26321.2 
68643.405673978      25415.3 
69329.839730718     24552.25 
70023.138128025     23454.65 
70723.369509305      22417.7 
71430.603204399      21676.1 
72144.909236443      20967.7 
72866.358328807        20065 
73595.021912095     19200.45 
74330.972131216     18074.35 
75074.281852528     17620.95 
75825.024671053      17084.6 
76583.274917764      16557.6 
77349.107666942      15877.6 
78122.598743611      15245.7 
78903.824731047      14638.6 
79692.862978358     14061.15 
80489.791608141     13512.05 
81294.689524223     12973.95 
82107.636419465      12491.6 
82928.712783659     12017.65 
83757.999911496     11565.85 
84595.579910611      11031.4 
85441.535709717     10525.25 
86295.951066814     10119.25 
87158.910577482      9707.34 
88030.499683257     9426.595 
88910.80468009      9092.54 
89799.912726891      8696.05 
90697.91185416     8319.435 
91604.890972701      8033.39 
92520.939882428 7693.3833333333 
93446.149281253     7339.715 
94380.610774065     7123.985 
95324.416881806      6831.06 
96277.661050624     6552.205 
97240.43766113       6288.1 
98212.842037741     6036.425 
99194.970458119      5844.32 
100186.9201627      5704.96 
199060.83304441      355.116 
399467.9878358      21.7173 
594753.39981818      4.22462 
793700.71765891      1.32132 
997811.18987739       0.5362 
1193529.3359837     0.256579 
1399507.0114645      0.13758 
