#  WAVELENGTH	        FLUX	
#  (ANGSTROM)	(ERG/CM2/S/A)	
############	############	
844.40658323736  2.90536E-25 
852.85064906973  6.49027E-25 
861.37915556043  1.42123E-24 
869.99294711603  3.05273E-24 
878.69287658719  6.43672E-24 
887.47980535306  1.33474E-23 
896.3546034066  2.71178E-23 
914.37133093507  2.16339E-17 
923.51504424442  1.15288E-16 
932.75019468686  1.38083E-16 
942.07769663373  3.19762E-16 
951.49847360007  2.83928E-16 
961.01345833607   5.8098E-16 
970.62359291943  3.26033E-16 
980.32982884862  1.62485E-15 
990.13312713711  2.94109E-15 
1000.0344584085   3.1412E-15 
1010.0348029926  1.88759E-15 
1020.1351510225   4.7038E-15 
1030.3365025327  1.63849E-14 
1040.639867558  3.63612E-14 
1051.0462662336  4.59885E-14 
1061.556728896  1.49852E-13 
1072.1722961849  2.14676E-13 
1082.8940191468  5.10424E-13 
1093.7229593382  7.49706E-13 
1104.6601889316  1.26188E-12 
1115.7067908209  3.75562E-12 
1126.8638587291   6.4688E-12 
1138.1324973164  1.05778E-11 
1149.5138222896  1.46055E-11 
1161.0089605125  1.64912E-11 
1172.6190501176  2.16994E-11 
1184.3452406188 1.9832315E-11 
1196.188693025  3.30644E-12 
1208.1505799552  1.72443E-12 
1220.2320857548  6.71079E-12 
1232.4344066123  2.79999E-11 
1244.7587506785  2.58384E-10 
1257.2063381852  6.09253E-10 
1269.7784015671   1.00255E-9 
1282.4761855828   1.44605E-9 
1295.3009474386   2.43289E-9 
1308.253956913   3.34287E-9 
1321.3364964821   4.10329E-9 
1334.5498614469   5.94268E-9 
1347.8953600614   9.81886E-9 
1361.374313662   1.13022E-8 
1374.9880567986  1.497925E-8 
1388.7379373666   2.02533E-8 
1402.6253167403  3.504085E-8 
1416.6515699077    4.5307E-8 
1430.8180856068 8.1500647058824E-8 
1445.1262664628 9.6831769230769E-8 
1459.5775291275   1.59592E-7 
1474.1733044187  1.856645E-7 
1488.9150374629   3.47178E-7 
1503.8041878376 4.5052381818182E-7 
1518.8422297159   8.26558E-7 
1534.0306520131   1.92266E-6 
1549.3709585332   2.73929E-6 
1564.8646681186   4.35658E-6 
1580.5133147997   5.89735E-6 
1596.3184479477   5.77844E-6 
1612.2816324272     5.534E-6 
1628.4044487515   8.10387E-6 
1644.688493239  1.073186E-5 
1661.1353781714 1.8323081818182E-5 
1677.7467319531   3.71923E-5 
1694.5241992726   6.37952E-5 
1711.4694412654   9.34495E-5 
1728.584135678  0.000166936 
1745.8699770348  0.000189807 
1763.3286768051 0.0002626395 
1780.9619635732  0.000494899 
1798.7715832089   0.00077544 
1816.759299041   0.00108093 
1834.9268920314 0.0012297125 
1853.2761609517 0.0016254545 
1871.8089225613  0.002331535 
1890.5270117869   0.00357555 
1909.4322819047   0.00528919 
1928.5266047238  0.005216525 
1947.811870771 0.012001263636364 
1967.2899894787 0.018394894117647 
1986.9628893735 0.01936670952381 
2006.8325182673    0.0236044 
2026.9008434499   0.02863885 
2047.1698518844   0.03521995 
2067.6415504033  0.040410815 
2088.3179659073    0.0908929 
2109.2011455664   0.08967135 
2130.293157022    0.1259915 
2151.5960885923     0.140194 
2173.1120494782     0.140074 
2194.843169973 0.29449633333333 
2216.7916016727     0.472777 
2238.9595176894    0.8982745 
2261.3491128663     0.730252 
2283.962603995     1.012033 
2306.8022300349      2.39828 
2329.8702523353     2.860795 
2353.1689548586 1.5603133333333 
2376.7006444072      4.82201 
2400.4676508513     7.863455 
2424.4723273598 14.773983333333 
2448.7170506334      19.8124 
2473.2042211397      11.7814 
2497.9362633511 14.007870869565 
2522.9156259846 57.636525925926 
2548.1447822445      75.6498 
2573.6262300669      79.6485 
2599.3624923676 135.89686666667 
2625.3561172913     432.8685 
2651.6096784642 630.38666666667 
2678.1257752488      479.114 
2704.9070330013        550.3 
2731.9561033313 497.70133333333 
2759.2756643647 983.78166666667 
2786.8684210083      500.048 
2814.7371052184 892.10766666667 
2842.8844762706 364.75036666667 
2871.3133210333 2100.5066666667 
2900.0264542436      5137.93 
2929.026718786     4970.485 
2958.3169859739      4338.78 
2987.9001558336       4863.8 
3017.779157392      7088.65 
3047.9569489659     10727.94 
3078.4365184556      14203.8 
3109.2208836401        20933 
3140.3130924765      28813.4 
3171.7162234013      28047.9 
3203.4333856353     28447.15 
3235.4677194916      45350.2 
3267.8223966866      63506.4 
3300.5006206534        55352 
3333.50562686      50595.4 
3366.8406831286      33554.5 
3400.5090899598     52760.35 
3434.5141808594      56282.4 
3468.859322668     69430.15 
3503.5479158947      91163.9 
3538.5833950537      88063.5 
3573.9692290042      61943.1 
3609.7089212942    111542.56 
3645.8060105072       152745 
3682.2640706123     143337.5 
3719.0867113184      74807.1 
3756.2775784316       147792 
3793.8403542159     99438.75 
3831.778757758     88236.85 
3870.0965453356       126988 
3908.797510789    110980.35 
3947.8854858969     106650.9 
3987.3643407558       282983 
4027.2379841634     284567.5 
4067.510364005       311176 
4108.1854676451     273855.5 
4149.2673223215 262644.33333333 
4190.7599955447     280222.5 
4232.6675955002     313098.5 
4274.9942714552     274154.5 
4317.7442141697       406006 
4360.9216563114       411512 
4404.5308728746       452757 
4448.5761816033       532768 
4493.0619434193     608380.5 
4537.9925628535     629472.5 
4583.3724884821     656124.5 
4629.2062133669       686127 
4675.4982755006       703106 
4722.2532582556     718341.5 
4769.4757908381 724365.66666667 
4817.1705487465     754009.5 
4865.342254234 760589.33333333 
4913.9956767763     777835.5 
4963.1356335441       741933 
5012.7669898795       720938 
5062.8946597783       696158 
5113.5236063761     647821.5 
5164.6588424398 660936.33333333 
5216.3054308642       847170 
5268.4684851729 873482.33333333 
5321.1531700246 906542.33333333 
5374.3647017249       905127 
5428.1083487421 928586.33333333 
5482.3894322295 949563.66666667 
5537.2133265518 972861.33333333 
5592.5854598173     994453.5 
5648.5113144155 1006329.3333333 
5704.9964275597 1016190.6666667 
5762.0463918353 1038176.6666667 
5819.6668557536 1063816.6666667 
5877.8635243112      1013776 
5936.6421595543 1068223.3333333 
5996.0085811498 1077846.6666667 
6055.9686669613      1075480 
6116.5283536309 1034876.6666667 
6177.6936371672 1060146.6666667 
6239.4705735389      1041240 
6301.8652792743 1074476.6666667 
6364.883932067 1088666.6666667 
6428.5327713877      1082030 
6492.8180991016 1101753.3333333 
6557.7462800926      1097080 
6623.3237428935 1107463.3333333 
6689.5569803225    1112117.5 
6756.4525501257      1115050 
6824.0170756269      1120240 
6892.2572463832 1115273.3333333 
6961.179818847      1108805 
7030.7916170355 1105186.6666667 
7101.0995332059      1088805 
7172.1105285379      1086790 
7243.8316338233    1099187.5 
7316.2699501615      1100840 
7389.4326496631      1099275 
7463.3269761598      1106115 
7537.9602459214      1110405 
7613.3398483806 1101883.3333333 
7689.4732468644      1097580 
7766.367979333      1103915 
7844.0316591264      1085120 
7922.4719757176      1067810 
8001.6966954748    1067987.5 
8081.7136624296      1058405 
8162.5307990539    1051297.5 
8244.1561070444      1056210 
8326.5976681148    1030412.5 
8409.863644796      1036282 
8493.9622812439    999420.25 
8578.9019040564      1039000 
8664.6909230969    1006153.2 
8751.3378323279    1023677.5 
8838.8512106512    1025467.5 
8927.2397227577    1009906.4 
9016.5121199853   1008251.75 
9106.6772411851     981794.8 
9197.744013597       960457 
9289.721453733     964208.6 
9382.6186682703       950929 
9476.444854953     950525.8 
9571.2093035025    942910.25 
9666.9213965375     930969.6 
9763.5906105029       932189 
9861.226516608     934437.6 
9959.838781774 928764.06666667 
10059.437169592       918778 
10160.031541288       910101 
10261.631856701       902578 
10364.248175268       893798 
10467.89065702     887298.5 
10572.56956359       873884 
10678.295259226     863021.5 
10785.078211819       849949 
10892.928993937     824074.5 
11001.858283876       807947 
11111.876866715       809284 
11222.995635382       805993 
11335.225591736     793925.5 
11448.577847653       799178 
11563.06362613 786010.66666667 
11678.694262391     784384.5 
11795.481205015       771973 
11913.436017065       767094 
12032.570377236       762771 
12152.896081008     760841.5 
12274.425041818       752884 
12397.169292236     746267.5 
12521.140985159 738874.33333333 
12646.35239501     732637.5 
12772.81591896 723019.66666667 
12900.54407815       717708 
13029.549518932     712795.5 
13159.845014121 705908.33333333 
13291.443464262     701956.5 
13424.357898905 700068.33333333 
13558.601477894 690996.66666667 
13694.187492673 691460.33333333 
13831.129367599     676871.5 
13969.440661275 673770.66666667 
14109.135067888       661699 
14250.226418567 660557.66666667 
14392.728682753       661613 
14536.65596958     651356.6 
14682.022529276 653128.66666667 
14828.842754569 659620.33333333 
14977.131182115 653423.66666667 
15126.902493936       661940 
15278.171518875 662469.33333333 
15430.953234064 663498.66666667 
15585.262766404       665601 
15741.115394068 652403.33333333 
15898.526548009 661404.57142857 
16057.511813489       658239 
16218.086931624       651404 
16380.26780094       631219 
16544.07047895       625988 
16709.511183739     599346.5 
16876.606295577       590555 
17045.372358532     568211.5 
17215.826082118       545672 
17387.984342939     528409.5 
17561.864186368       514009 
17737.482828232     499442.5 
17914.857656514       481209 
18094.006233079       461469 
18274.94629541     445554.5 
18457.695758364       432553 
18642.272715948       418516 
18828.695443107     404076.5 
19016.982397539     392620.5 
19207.152221514       378091 
19399.223743729     362885.5 
19593.215981166       350017 
19789.148140978       337539 
19987.039622388       329301 
20186.910018612     316357.5 
20388.779118798       307190 
20592.666909986     295992.5 
20798.593579086       286115 
21006.579514877       277791 
21216.645310025       268940 
21428.811763126       260667 
21643.099880757       249329 
21859.530879564     239558.5 
22078.12618836       232560 
22298.907450244     225326.5 
22521.896524746     218356.5 
22747.115489993 202131.66666667 
22974.586644893       192179 
23204.332511342       173200 
23436.375836456       167471 
23670.73959482     157819.5 
23907.446990769     158063.5 
24146.521460676 148290.66666667 
24387.986675283       140767 
24631.866542036       138931 
24878.185207456     137098.5 
25126.967059531 128899.33333333 
25378.236730126       127117 
25632.019097427 124148.33333333 
25888.339288402       121380 
26147.222681286 118367.66666667 
26408.694908098       113506 
26672.781857179       111785 
26939.509675751 108059.33333333 
27208.904772509 104873.33333333 
27480.993820234       101399 
27755.803758436      98031.7 
28033.361796021      94147.4 
28313.695413981 91962.533333333 
28596.832368121 88753.833333333 
28882.800691802      85789.1 
29171.62869872 81686.066666667 
29463.344985707 79222.033333333 
29757.978435564      76395.4 
30055.55821992 74270.066666667 
30356.113802119      71205.6 
30659.67494014 68711.566666667 
30966.271689541 66683.766666667 
31275.934406437 63960.733333333 
31588.693750501 62199.166666667 
31904.580688006     60338.26 
32223.626494886     57698.95 
32545.862759835      56022.2 
32871.321387434      53981.7 
33200.034601308      51623.7 
33532.034947321      50394.8 
33867.355296794      48296.4 
34206.028849762      46451.5 
34548.08913826        45173 
34893.570029642     43681.25 
35242.505729939      41906.8 
35594.930787238     39962.05 
35950.880095111     38613.45 
36310.388896062      37360.4 
36673.492785022     36263.35 
37040.227712872      34682.7 
37410.629990001      33395.4 
37784.736289901     32187.05 
38162.5836528     30911.45 
38544.209489328     29774.65 
38929.651584221      28603.4 
39318.948100064     27636.95 
39712.137581064      26410.5 
40109.258956875     25477.65 
40510.351546444     24473.05 
40915.455061908      23617.6 
41324.609612527      22726.1 
41737.855708653      21920.6 
42155.234265739        21186 
42576.786608396     20005.65 
43002.55447448     18533.45 
43432.580019225      17271.5 
43866.905819417        15994 
44305.574877612     14723.65 
44748.630626388      14251.2 
45196.116932652     13467.35 
45648.078101978 12946.866666667 
46104.558882998     12505.25 
46565.604471828     12229.35 
47031.260516546 11832.966666667 
47501.573121712     11475.85 
47976.588852929      11155.7 
48456.354741458      10783.6 
48940.918288873     10414.55 
49430.327471761 10082.846666667 
49924.630746479      9719.44 
50423.877053944      9404.48 
50928.115824483      9095.82 
51437.396982728 8848.4566666667 
51951.770952555     8545.525 
52471.288662081 8343.1233333333 
52996.001548702 7996.7566666667 
53525.961564189      7796.03 
54061.221179831 7547.8866666667 
54601.833391629 7275.7233333333 
55147.851725545     7107.525 
55699.330242801 6912.8333333333 
56256.323545229 6656.2233333333 
56818.886780681      6426.03 
57387.075648488 6230.2566666667 
57960.946404973 6011.6066666667 
58540.555869022 5798.1666666667 
59125.961427713 5610.6333333333 
59717.22104199 5430.9233333333 
60314.39325241 5224.7333333333 
60917.537184934 5049.7233333333 
61526.712556783      4895.64 
62141.979682351 4719.6033333333 
62763.399479174 4560.5833333333 
63391.033473966      4402.51 
64024.943808706 4208.3442857143 
64665.193246793      4060.57 
65311.845179261     3914.255 
65964.963631053      3730.57 
66624.613267364      3607.34 
67290.859400038     3487.175 
67963.767994038      3332.58 
68643.405673978      3226.16 
69329.839730718      3123.54 
70023.138128025      2986.23 
70723.369509305     2862.535 
71430.603204399      2774.74 
72144.909236443     2681.925 
72866.358328807     2573.865 
73595.021912095     2467.315 
74330.972131216       2367.7 
75074.281852528      2257.73 
75825.024671053      2170.41 
76583.274917764     2087.695 
77349.107666942     1981.325 
78122.598743611      1889.59 
78903.824731047      1809.17 
79692.862978358     1737.735 
80489.791608141     1675.155 
81294.689524223      1622.68 
82107.636419465      1568.25 
82928.712783659       1511.2 
83757.999911496      1457.67 
84595.579910611 1393.7333333333 
85441.535709717      1333.22 
86295.951066814      1285.25 
87158.910577482      1241.72 
88030.499683257     1198.645 
88910.80468009      1159.45 
89799.912726891 1113.3166666667 
90697.91185416      1067.48 
91604.890972701     1034.335 
92520.939882428 994.12333333333 
93446.149281253       954.49 
94380.610774065     925.5355 
95324.416881806      891.486 
96277.661050624     856.6855 
97240.43766113      824.717 
98212.842037741      792.494 
99194.970458119      769.035 
100186.9201627      752.332 
199060.83304441      49.5371 
399467.9878358      3.14359 
594753.39981818     0.620286 
793700.71765891     0.195441 
997811.18987739    0.0796333 
1193529.3359837    0.0381963 
1399507.0114645    0.0205107 
