#  WAVELENGTH	        FLUX	
#  (ANGSTROM)	(ERG/CM2/S/A)	
############	############	
596.07859694064  4.94481E-25 
608.05977673914  1.57648E-24 
614.14037450653  4.82957E-24 
626.48459603412  1.42491E-23 
639.0769364144  4.05739E-23 
645.46770577855  1.11646E-22 
651.92238283633   2.4506E-22 
658.44160666469  4.79506E-22 
671.67628295866  1.21926E-21 
678.39304578824  3.01145E-21 
692.02874600859  7.23315E-21 
698.94903346867  1.69126E-20 
712.99790904139  4.18246E-20 
720.12788813181  9.28325E-20 
734.60245868325   1.8655E-19 
741.94848327009  3.96634E-19 
749.36796810279  8.25401E-19 
764.43026426165  1.68253E-18 
772.07456690427  3.36208E-18 
779.79531257331   6.5922E-18 
787.59326569905   1.2679E-17 
803.4238903396  2.39953E-17 
811.45812924299  4.46286E-17 
819.57271053542  8.16587E-17 
827.76843764078  1.47104E-16 
844.40658323736  2.61016E-16 
852.85064906973  4.56425E-16 
861.37915556043  7.86919E-16 
869.99294711603  1.33829E-15 
878.69287658719  2.24713E-15 
887.47980535306  3.72522E-15 
896.3546034066  6.10018E-15 
914.37133093507  1.80697E-10 
923.51504424442  6.88012E-10 
932.75019468686  8.94008E-10 
942.07769663373   1.57602E-9 
951.49847360007   2.71094E-9 
961.01345833607   4.11756E-9 
970.62359291943   5.43086E-9 
980.32982884862   9.93251E-9 
990.13312713711   1.47325E-8 
1000.0344584085   2.22687E-8 
1010.0348029926   2.71194E-8 
1020.1351510225   3.78119E-8 
1030.3365025327   7.62234E-8 
1040.639867558   1.14838E-7 
1051.0462662336    1.4619E-7 
1061.556728896   2.23283E-7 
1072.1722961849   3.17555E-7 
1082.8940191468   4.58679E-7 
1093.7229593382   5.79883E-7 
1104.6601889316  2.182875E-6 
1115.7067908209   4.48133E-6 
1126.8638587291   6.93027E-6 
1138.1324973164     8.931E-6 
1149.5138222896   1.03441E-5 
1161.0089605125   1.25247E-5 
1172.6190501176   1.48196E-5 
1184.3452406188   1.31703E-5 
1196.188693025   7.93871E-6 
1208.1505799552   4.13881E-6 
1220.2320857548    1.3708E-5 
1232.4344066123   2.57893E-5 
1244.7587506785  6.628065E-5 
1257.2063381852  0.000103767 
1269.7784015671  0.000137202 
1282.4761855828  0.000184575 
1295.3009474386  0.000236609 
1308.253956913  0.000304547 
1321.3364964821  0.000340246 
1334.5498614469  0.000453886 
1347.8953600614  0.000619155 
1361.374313662  0.000717158 
1374.9880567986 0.0009406355 
1388.7379373666   0.00122204 
1402.6253167403   0.00170154 
1416.6515699077    0.0022083 
1430.8180856068 0.0029998094117647 
1445.1262664628 0.0037065169230769 
1459.5775291275   0.00499652 
1474.1733044187  0.005964685 
1488.9150374629   0.00848922 
1503.8041878376 0.010629128181818 
1518.8422297159    0.0179113 
1534.0306520131     0.262412 
1549.3709585332     0.576495 
1564.8646681186     0.887441 
1580.5133147997     1.813825 
1596.3184479477      2.19543 
1612.2816324272     2.828355 
1628.4044487515       3.5821 
1644.688493239      4.43441 
1661.1353781714 6.6274486363636 
1677.7467319531      21.1279 
1694.5241992726      37.1638 
1711.4694412654     44.07895 
1728.584135678     75.91555 
1745.8699770348      121.622 
1763.3286768051     126.1395 
1780.9619635732     184.7865 
1798.7715832089     222.3955 
1816.759299041      273.254 
1834.9268920314      289.704 
1853.2761609517      387.146 
1871.8089225613     500.5465 
1890.5270117869     674.5795 
1909.4322819047     839.5885 
1928.5266047238     917.1865 
1947.811870771 1357.9763636364 
1967.2899894787 1568.7976470588 
1986.9628893735       1814.7 
2006.8325182673     1936.875 
2026.9008434499     2657.615 
2047.1698518844     2959.465 
2067.6415504033    4057.7665 
2088.3179659073     8624.775 
2109.2011455664     10214.68 
2130.293157022     12807.25 
2151.5960885923      16290.8 
2173.1120494782     20692.55 
2194.843169973 22765.833333333 
2216.7916016727      31959.7 
2238.9595176894      31691.8 
2261.3491128663     28842.85 
2283.962603995      45230.8 
2306.8022300349     37799.15 
2329.8702523353     17299.75 
2353.1689548586 24417.966666667 
2376.7006444072     13308.15 
2400.4676508513     21375.95 
2424.4723273598      80072.1 
2448.7170506334     92536.15 
2473.2042211397 51307.333333333 
2497.9362633511 54674.939130435 
2522.9156259846 52897.07037037 
2548.1447822445       129120 
2573.6262300669 96797.866666667 
2599.3624923676 52787.733333333 
2625.3561172913       249947 
2651.6096784642 348747.33333333 
2678.1257752488     325394.5 
2704.9070330013       253021 
2731.9561033313 160189.86666667 
2759.2756643647       187940 
2786.8684210083      34694.1 
2814.7371052184 281452.66666667 
2842.8844762706 237998.33333333 
2871.3133210333 477910.33333333 
2900.0264542436       680001 
2929.026718786     627107.5 
2958.3169859739       667710 
2987.9001558336     700655.5 
3017.779157392       760648 
3047.9569489659     797058.5 
3078.4365184556       767933 
3109.2208836401       795934 
3140.3130924765     780334.5 
3171.7162234013       762633 
3203.4333856353       800038 
3235.4677194916      1056340 
3267.8223966866      1227235 
3300.5006206534      1152365 
3333.50562686      1104190 
3366.8406831286       926125 
3400.5090899598      1191550 
3434.5141808594      1324290 
3468.859322668      1411400 
3503.5479158947      1503500 
3538.5833950537      1514870 
3573.9692290042      1352630 
3609.7089212942      1535990 
3645.8060105072 1725636.6666667 
3682.2640706123      1885950 
3719.0867113184      1801975 
3756.2775784316      2128760 
3793.8403542159      1880250 
3831.778757758      1732190 
3870.0965453356      1928900 
3908.797510789      1624290 
3947.8854858969      1652105 
3987.3643407558      2757275 
4027.2379841634      2821110 
4067.510364005      2939510 
4108.1854676451      3060735 
4149.2673223215 2998236.6666667 
4190.7599955447      2934760 
4232.6675955002      2778010 
4274.9942714552      2160185 
4317.7442141697      2915240 
4360.9216563114      2915455 
4404.5308728746      3281975 
4448.5761816033 3560033.3333333 
4493.0619434193      3790355 
4537.9925628535      3851225 
4583.3724884821      3870710 
4629.2062133669 3969583.3333333 
4675.4982755006      3981995 
4722.2532582556      4076865 
4769.4757908381 4081143.3333333 
4817.1705487465      4031190 
4865.342254234      3928520 
4913.9956767763      4039255 
4963.1356335441 3974206.6666667 
5012.7669898795      4011835 
5062.8946597783 4062016.6666667 
5113.5236063761      3935825 
5164.6588424398      3856030 
5216.3054308642      4022675 
5268.4684851729 4009866.6666667 
5321.1531700246 4051546.6666667 
5374.3647017249      4036825 
5428.1083487421 4079716.6666667 
5482.3894322295 4094456.6666667 
5537.2133265518      4086820 
5592.5854598173      4105390 
5648.5113144155 4086033.3333333 
5704.9964275597      4101350 
5762.0463918353 4105316.6666667 
5819.6668557536      4103200 
5877.8635243112 4022496.6666667 
5936.6421595543 4053423.3333333 
5996.0085811498 4019006.6666667 
6055.9686669613      3986510 
6116.5283536309 3865376.6666667 
6177.6936371672 3908143.3333333 
6239.4705735389 3851186.6666667 
6301.8652792743 3839653.3333333 
6364.883932067      3822560 
6428.5327713877    3767402.5 
6492.8180991016 3772966.6666667 
6557.7462800926      3654950 
6623.3237428935 3717983.3333333 
6689.5569803225      3694080 
6756.4525501257      3652650 
6824.0170756269      3617455 
6892.2572463832      3579980 
6961.179818847    3533352.5 
7030.7916170355 3500946.6666667 
7101.0995332059    3448247.5 
7172.1105285379 3388066.6666667 
7243.8316338233    3372327.5 
7316.2699501615 3345993.3333333 
7389.4326496631    3281647.5 
7463.3269761598    3263632.5 
7537.9602459214      3229770 
7613.3398483806 3184153.3333333 
7689.4732468644      3143865 
7766.367979333    3119837.5 
7844.0316591264      3073575 
7922.4719757176    3016727.5 
8001.6966954748    2981497.5 
8081.7136624296    2941422.5 
8162.5307990539    2886282.5 
8244.1561070444    2864047.5 
8326.5976681148      2807335 
8409.863644796      2767722 
8493.9622812439    2611807.5 
8578.9019040564    2695212.5 
8664.6909230969      2591310 
8751.3378323279      2616310 
8838.8512106512    2582567.5 
8927.2397227577      2536416 
9016.5121199853    2501182.5 
9106.6772411851      2461110 
9197.744013597    2393882.5 
9289.721453733      2382390 
9382.6186682703      2329946 
9476.444854953      2298656 
9571.2093035025    2265272.5 
9666.9213965375      2231208 
9763.5906105029      2199752 
9861.226516608      2165224 
9959.838781774 2135260.6666667 
10059.437169592      2092025 
10160.031541288      2057860 
10261.631856701      2024300 
10364.248175268      1992330 
10467.89065702      1958440 
10572.56956359      1909540 
10678.295259226      1871115 
10785.078211819      1831575 
10892.928993937      1790575 
11001.858283876      1768195 
11111.876866715      1741815 
11222.995635382 1710436.6666667 
11335.225591736      1673370 
11448.577847653      1660620 
11563.06362613 1619173.3333333 
11678.694262391      1594585 
11795.481205015      1562185 
11913.436017065 1537013.3333333 
12032.570377236      1510405 
12152.896081008      1497075 
12274.425041818 1468003.3333333 
12397.169292236      1443230 
12521.140985159      1416880 
12646.35239501      1392680 
12772.81591896      1359370 
12900.54407815 1340333.3333333 
13029.549518932      1317175 
13159.845014121      1293410 
13291.443464262      1274890 
13424.357898905 1257556.6666667 
13558.601477894 1230023.3333333 
13694.187492673 1209303.3333333 
13831.129367599      1191355 
13969.440661275      1172680 
14109.135067888      1146530 
14250.226418567      1127440 
14392.728682753 1105233.3333333 
14536.65596958      1090018 
14682.022529276 1069993.3333333 
14828.842754569 1054113.3333333 
14977.131182115 1032513.3333333 
15126.902493936 1022226.6666667 
15278.171518875      1004951 
15430.953234064       987973 
15585.262766404 969850.66666667 
15741.115394068 941336.33333333 
15898.526548009 937232.14285714 
16057.511813489       903931 
16218.086931624       898304 
16380.26780094       857325 
16544.07047895     852029.5 
16709.511183739       805655 
16876.606295577       795493 
17045.372358532     767612.5 
17215.826082118       727589 
17387.984342939     708716.5 
17561.864186368       688671 
17737.482828232     669526.5 
17914.857656514       644284 
18094.006233079       611313 
18274.94629541       594833 
18457.695758364       578821 
18642.272715948       552840 
18828.695443107       538496 
19016.982397539       521943 
19207.152221514     502213.5 
19399.223743729       477818 
19593.215981166       466095 
19789.148140978       450176 
19987.039622388       436228 
20186.910018612     419396.5 
20388.779118798     406521.5 
20592.666909986     391566.5 
20798.593579086     378303.5 
21006.579514877       366231 
21216.645310025     353948.5 
21428.811763126       342606 
21643.099880757 325454.66666667 
21859.530879564       314583 
22078.12618836       304874 
22298.907450244       295114 
22521.896524746       285326 
22747.115489993 272265.66666667 
22974.586644893       261492 
23204.332511342     248529.5 
23436.375836456 240195.66666667 
23670.73959482     230305.5 
23907.446990769       225309 
24146.521460676 215431.66666667 
24387.986675283       207014 
24631.866542036 200734.33333333 
24878.185207456     194573.5 
25126.967059531 187191.66666667 
25378.236730126       181078 
25632.019097427 174752.33333333 
25888.339288402     169629.5 
26147.222681286       162477 
26408.694908098 156786.66666667 
26672.781857179       151799 
26939.509675751 147385.66666667 
27208.904772509 141705.33333333 
27480.993820234 135692.66666667 
27755.803758436       131760 
28033.361796021 127519.66666667 
28313.695413981 122709.66666667 
28596.832368121 117580.33333333 
28882.800691802       113600 
29171.62869872 109215.66666667 
29463.344985707 105236.33333333 
29757.978435564       101354 
30055.55821992      97398.3 
30356.113802119      94026.6 
30659.67494014      90696.8 
30966.271689541 87430.633333333 
31275.934406437 84323.233333333 
31588.693750501 81424.233333333 
31904.580688006      78739.6 
32223.626494886      75457.3 
32545.862759835      72919.4 
32871.321387434      70199.4 
33200.034601308     67233.85 
33532.034947321        65090 
33867.355296794     62797.55 
34206.028849762      60220.8 
34548.08913826      58307.5 
34893.570029642     56438.95 
35242.505729939     54033.85 
35594.930787238     51732.35 
35950.880095111        49687 
36310.388896062        48075 
36673.492785022      46573.5 
37040.227712872     44689.65 
37410.629990001      42831.8 
37784.736289901     41271.35 
38162.5836528      39695.4 
38544.209489328     38151.75 
38929.651584221        36688 
39318.948100064      35312.7 
39712.137581064     33923.45 
40109.258956875      32610.4 
40510.351546444     31497.25 
40915.455061908     30371.55 
41324.609612527      29229.8 
41737.855708653      28180.2 
42155.234265739        27216 
42576.786608396      25998.2 
43002.55447448      24689.4 
43432.580019225      23424.8 
43866.905819417      22234.6 
44305.574877612     21047.95 
44748.630626388      20388.9 
45196.116932652      19468.5 
45648.078101978 18717.366666667 
46104.558882998      17977.3 
46565.604471828      17484.7 
47031.260516546 16879.666666667 
47501.573121712     16255.45 
47976.588852929     15766.05 
48456.354741458 15206.933333333 
48940.918288873      14645.3 
49430.327471761      14114.6 
49924.630746479     13595.45 
50423.877053944 13104.966666667 
50928.115824483     12638.15 
51437.396982728 12230.133333333 
51951.770952555      11773.2 
52471.288662081 11402.266666667 
52996.001548702 10927.666666667 
53525.961564189     10579.25 
54061.221179831 10210.333333333 
54601.833391629 9806.2533333333 
55147.851725545      9497.02 
55699.330242801       9195.8 
56256.323545229      8841.18 
56818.886780681 8498.3466666667 
57387.075648488 8186.1533333333 
57960.946404973 7875.6366666667 
58540.555869022 7575.7833333333 
59125.961427713 7298.5266666667 
59717.22104199      7038.32 
60314.39325241      6772.44 
60917.537184934      6525.93 
61526.712556783      6298.38 
62141.979682351      6066.89 
62763.399479174 5851.0366666667 
63391.033473966 5645.7833333333 
64024.943808706 5405.7628571429 
64665.193246793      5224.63 
65311.845179261     5045.825 
65964.963631053     4814.985 
66624.613267364      4650.68 
67290.859400038      4491.43 
67963.767994038      4292.74 
68643.405673978      4149.01 
69329.839730718      4012.09 
70023.138128025     3837.625 
70723.369509305     3673.085 
71430.603204399      3554.55 
72144.909236443     3441.255 
72866.358328807      3297.19 
73595.021912095      3160.34 
74330.972131216     3025.885 
75074.281852528     2907.235 
75825.024671053      2818.71 
76583.274917764       2733.9 
77349.107666942     2625.545 
78122.598743611      2522.46 
78903.824731047     2424.335 
79692.862978358     2330.825 
80489.791608141     2241.815 
81294.689524223     2156.715 
82107.636419465      2076.42 
82928.712783659     1999.205 
83757.999911496     1925.795 
84595.579910611 1838.8566666667 
85441.535709717       1756.3 
86295.951066814      1693.67 
87158.910577482     1633.635 
88030.499683257     1576.675 
88910.80468009      1521.96 
89799.912726891 1457.0166666667 
90697.91185416     1395.015 
91604.890972701     1348.265 
92520.939882428      1292.35 
93446.149281253     1238.995 
94380.610774065      1198.53 
95324.416881806      1150.25 
96277.661050624      1104.04 
97240.43766113      1060.38 
98212.842037741     1018.965 
99194.970458119     987.0845 
100186.9201627      964.336 
199060.83304441      62.8557 
399467.9878358       3.9745 
594753.39981818     0.784113 
793700.71765891     0.247106 
997811.18987739     0.100741 
1193529.3359837    0.0483523 
1399507.0114645     0.025979 
