#  WAVELENGTH	        FLUX	
#  (ANGSTROM)	(ERG/CM2/S/A)	
############	############	
        90.9  3.87521E-12 
    92.72709  1.64732E-11 
95.53681355409  6.48361E-11 
97.457103506527  1.45521E-10 
99.415991287008  3.67576E-10 
101.41425271188   1.12939E-9 
103.45267919139   2.53861E-9 
105.53207804313     5.555E-9 
107.6532728118   1.34134E-8 
109.81710359532   3.97219E-8 
113.14467165136   1.56353E-7 
117.73879903054   6.10072E-7 
120.10534889105   1.98818E-6 
123.7446610678    6.0833E-6 
126.23192875526   1.22874E-5 
127.49424804281   1.80891E-5 
130.05688242847   3.32659E-5 
131.35745125276   5.68541E-5 
132.67102576529   8.59247E-5 
135.33771338317  0.000177045 
139.43858143639  0.000403602 
142.24129692326  0.000956425 
146.55135046134   0.00238822 
150.99200293167   0.00559371 
154.02694219059    0.0136919 
158.69411256591    0.0285086 
161.88386422848    0.0533903 
165.13772989948      0.11344 
170.14156825316     0.245896 
171.84298393569     0.420288 
175.2970279128     0.741992 
178.82049817385      1.28384 
180.60870315558      1.62583 
186.0813274699      3.18458 
189.82156215205      6.51071 
193.6369755513       9.7825 
197.52907875988      17.9959 
201.49941324296      28.0388 
203.51440737539      42.0252 
209.68109743327      81.9995 
216.03464436659      158.293 
218.19499081026      235.908 
222.58071012555      332.746 
224.8065172268      493.809 
229.32512822306       175731 
233.93456330034       896484 
238.63664802268      1985030 
245.86757709442      3738710 
250.80951539401      5990480 
255.85078665343      5662420 
258.40929451997     12480000 
263.60332133982     30669400 
266.23935455322     47181900 
271.59076557974     56961200 
277.04973996789     50844500 
282.61843974125     99157000 
288.29907038004    113306000 
294.09388169468     93464500 
300.00516871675     74463700 
306.03527260795    189564000 
315.30844740325    413561000 
324.86260866801    485166000 
334.70627057326    602337000 
344.8482052779    737507000 
355.29745074603    899845000 
362.43892950602   1147720000 
373.42119150899   1224370000 
384.7362270329   1365000000 
392.46942519626   1598820000 
404.36164124913   1781640000 
412.48931023824   1976410000 
420.78034537403   2078490000 
429.23803031605   2213930000 
437.8657147254   2534700000 
446.66681559138   2786570000 
455.64481858477   2941910000 
469.4513122327   3253620000 
478.88728360858   3581560000 
488.51291800911   3781730000 
498.3320276611   4237330000 
503.31534793771   9655600000 
508.34850141708  32250200000 
518.56630629557  30381000000 
528.98948905211  29117800000 
539.62217778206  26102400000 
545.01839955988  28144500000 
555.97326939103  31716800000 
567.14833210579  31995900000 
578.54801358112  29869600000 
584.33349371693  30876500000 
596.07859694064  28849200000 
608.05977673914  29778000000 
614.14037450653  32200400000 
626.48459603412  31615200000 
639.0769364144  31422400000 
645.46770577855  31218300000 
651.92238283633  29752900000 
658.44160666469  30737400000 
671.67628295866  31448800000 
678.39304578824  29010400000 
692.02874600859  31068100000 
698.94903346867  29333500000 
712.99790904139  31369700000 
720.12788813181  30977600000 
734.60245868325  31217100000 
741.94848327009  30416000000 
749.36796810279  30129700000 
764.43026426165  29762500000 
772.07456690427  29770200000 
779.79531257331  30063200000 
787.59326569905  29805200000 
803.4238903396  29372200000 
811.45812924299  29355200000 
819.57271053542  29526800000 
827.76843764078  27388700000 
844.40658323736  28914900000 
852.85064906973  28642900000 
861.37915556043  28818700000 
869.99294711603  28635200000 
878.69287658719  28464100000 
887.47980535306  28322600000 
896.3546034066  27799500000 
914.37133093507  26115200000 
923.51504424442  53390600000 
932.75019468686  78980900000 
942.07769663373 116483000000 
951.49847360007 130072000000 
961.01345833607 158961000000 
970.62359291943  95222500000 
980.32982884862 151329000000 
990.13312713711 136910000000 
1000.0344584085 142863000000 
1010.0348029926 140504000000 
1020.1351510225  93194400000 
1030.3365025327 132995000000 
1040.639867558 139673000000 
1051.0462662336 136144000000 
1061.556728896 126940000000 
1072.1722961849 126213000000 
1082.8940191468 114799000000 
1093.7229593382 121997000000 
1104.6601889316 115567500000 
1115.7067908209 105873000000 
1126.8638587291 109572000000 
1138.1324973164 105799000000 
1149.5138222896 102291000000 
1161.0089605125  99435500000 
1172.6190501176  83566200000 
1184.3452406188  91275400000 
1196.188693025  85850100000 
1208.1505799552  59037500000 
1220.2320857548  81909600000 
1232.4344066123  83967700000 
1244.7587506785  81139150000 
1257.2063381852  79989700000 
1269.7784015671  78612500000 
1282.4761855828  75294250000 
1295.3009474386  72560000000 
1308.253956913  72355800000 
1321.3364964821  70072600000 
1334.5498614469  67822650000 
1347.8953600614  65754700000 
1361.374313662  63973600000 
1374.9880567986  61765150000 
1388.7379373666  57070300000 
1402.6253167403  56596600000 
1416.6515699077  54134100000 
1430.8180856068 54320705882.353 
1445.1262664628  52463100000 
1459.5775291275  51111300000 
1474.1733044187  49680850000 
1488.9150374629  48055800000 
1503.8041878376 46813440909.091 
1518.8422297159  45030300000 
1534.0306520131  40928400000 
1549.3709585332  39087200000 
1564.8646681186  39630150000 
1580.5133147997  39073450000 
1596.3184479477  36817200000 
1612.2816324272  35579800000 
1628.4044487515  34754000000 
1644.688493239  33867550000 
1661.1353781714 33461590909.091 
1677.7467319531  33132200000 
1694.5241992726  32097700000 
1711.4694412654  30428200000 
1728.584135678  30081000000 
1745.8699770348  29060600000 
1763.3286768051  28470200000 
1780.9619635732  27544700000 
1798.7715832089  26610750000 
1816.759299041  25837900000 
1834.9268920314  25249200000 
1853.2761609517  24253250000 
1871.8089225613  23397100000 
1890.5270117869  22707400000 
1909.4322819047  21736550000 
1928.5266047238  21335400000 
1947.811870771 20471609090.909 
1967.2899894787 20032664705.882 
1986.9628893735 19318471428.571 
2006.8325182673  18817800000 
2026.9008434499  18178150000 
2047.1698518844  14424700000 
2067.6415504033  14306950000 
2088.3179659073  15835200000 
2109.2011455664  16053800000 
2130.293157022  15567900000 
2151.5960885923  15066000000 
2173.1120494782  14669950000 
2194.843169973 14177433333.333 
2216.7916016727  13771800000 
2238.9595176894  13173150000 
2261.3491128663  12970850000 
2283.962603995  12270200000 
2306.8022300349  12025400000 
2329.8702523353  11688350000 
2353.1689548586 11264533333.333 
2376.7006444072  10681800000 
2400.4676508513  10554400000 
2424.4723273598  10190000000 
2448.7170506334   9834020000 
2473.2042211397 9328703333.3333 
2497.9362633511 8951014782.6087 
2522.9156259846 8852880370.3704 
2548.1447822445   8568820000 
2573.6262300669 8286193333.3333 
2599.3624923676 7978666666.6667 
2625.3561172913   7717630000 
2651.6096784642   7453340000 
2678.1257752488   7214265000 
2704.9070330013 6986263333.3333 
2731.9561033313 6684273333.3333 
2759.2756643647   6473300000 
2786.8684210083   6264415000 
2814.7371052184 6071796666.6667 
2842.8844762706   5869010000 
2871.3133210333 5656423333.3333 
2900.0264542436   5484040000 
2929.026718786   5279675000 
2958.3169859739   5103700000 
2987.9001558336   4920430000 
3017.779157392   4746820000 
3047.9569489659   4590515000 
3078.4365184556   4429340000 
3109.2208836401   4286000000 
3140.3130924765   4094805000 
3171.7162234013   3938670000 
3203.4333856353   3812865000 
3235.4677194916   3708280000 
3267.8223966866   3585275000 
3300.5006206534   3436685000 
3333.50562686   3321880000 
3366.8406831286   3224045000 
3400.5090899598   3088885000 
3434.5141808594   2982700000 
3468.859322668   2897905000 
3503.5479158947   2784440000 
3538.5833950537   2678585000 
3573.9692290042   2589390000 
3609.7089212942   2505594000 
3645.8060105072   2325040000 
3682.2640706123   2240995000 
3719.0867113184   2157845000 
3756.2775784316   2100125000 
3793.8403542159   2053915000 
3831.778757758   2145975000 
3870.0965453356   1829770000 
3908.797510789   2079570000 
3947.8854858969   1854820000 
3987.3643407558   1931770000 
4027.2379841634   1851365000 
4067.510364005   1762390000 
4108.1854676451   1630645000 
4149.2673223215   1675480000 
4190.7599955447   1604505000 
4232.6675955002   1552190000 
4274.9942714552   1494200000 
4317.7442141697   1316825000 
4360.9216563114   1381165000 
4404.5308728746   1351880000 
4448.5761816033 1284296666.6667 
4493.0619434193   1244635000 
4537.9925628535   1199155000 
4583.3724884821   1165865000 
4629.2062133669 1114043333.3333 
4675.4982755006   1059265000 
4722.2532582556   1042750000 
4769.4757908381   1002340000 
4817.1705487465    934128000 
4865.342254234 886437333.33333 
4913.9956767763    883948500 
4963.1356335441 857126666.66667 
5012.7669898795    826400500 
5062.8946597783    797663000 
5113.5236063761    768663500 
5164.6588424398 741108666.66667 
5216.3054308642    714666500 
5268.4684851729 689505666.66667 
5321.1531700246 660739666.66667 
5374.3647017249    634563000 
5428.1083487421 615987666.66667 
5482.3894322295    590943000 
5537.2133265518 567104333.33333 
5592.5854598173    548239500 
5648.5113144155 529198666.66667 
5704.9964275597 500166666.66667 
5762.0463918353    481141000 
5819.6668557536 459863333.33333 
5877.8635243112    446830000 
5936.6421595543 432450666.66667 
5996.0085811498    418593000 
6055.9686669613 404123333.33333 
6116.5283536309 389277666.66667 
6177.6936371672    375148000 
6239.4705735389    361633000 
6301.8652792743 348719666.66667 
6364.883932067    336376000 
6428.5327713877    322663000 
6492.8180991016 305656666.66667 
6557.7462800926 287339333.33333 
6623.3237428935 288017666.66667 
6689.5569803225    276799000 
6756.4525501257    266738000 
6824.0170756269    256359500 
6892.2572463832    246671000 
6961.179818847    237360250 
7030.7916170355    227632000 
7101.0995332059    219925500 
7172.1105285379 211801333.33333 
7243.8316338233    203916000 
7316.2699501615 196826666.66667 
7389.4326496631    189798500 
7463.3269761598    182117250 
7537.9602459214    174713250 
7613.3398483806 168775333.33333 
7689.4732468644    162952750 
7766.367979333    156617250 
7844.0316591264    150656250 
7922.4719757176    144908000 
8001.6966954748    139433250 
8081.7136624296    134147750 
8162.5307990539    128481250 
8244.1561070444    123351250 
8326.5976681148    118877750 
8409.863644796    114104200 
8493.9622812439    109615750 
8578.9019040564    105566750 
8664.6909230969    101174880 
8751.3378323279     98459700 
8838.8512106512     93393050 
8927.2397227577     90934080 
9016.5121199853     87662900 
9106.6772411851     85927060 
9197.744013597     79054675 
9289.721453733     79714980 
9382.6186682703     76660640 
9476.444854953     70539800 
9571.2093035025     70655450 
9666.9213965375     68429360 
9763.5906105029     65812120 
9861.226516608     63255980 
9959.838781774 59860893.333333 
10059.437169592     57008650 
10160.031541288     56528250 
10261.631856701     54340700 
10364.248175268     52408550 
10467.89065702     50488950 
10572.56956359 48197533.333333 
10678.295259226     46058450 
10785.078211819     44163500 
10892.928993937     40927800 
11001.858283876     41233900 
11111.876866715     39934300 
11222.995635382 38231833.333333 
11335.225591736     36619050 
11448.577847653     35388250 
11563.06362613 33888233.333333 
11678.694262391     32533950 
11795.481205015     31471900 
11913.436017065 30123133.333333 
12032.570377236     29002450 
12152.896081008     28082200 
12274.425041818 26985566.666667 
12397.169292236     25937550 
12521.140985159 24931966.666667 
12646.35239501     23978150 
12772.81591896     22383300 
12900.54407815     22018800 
13029.549518932     21247050 
13159.845014121     20471300 
13291.443464262     19728200 
13424.357898905 19017733.333333 
13558.601477894     18212200 
13694.187492673 17445933.333333 
13831.129367599     16837350 
13969.440661275 16256466.666667 
14109.135067888 15591266.666667 
14250.226418567 14959666.666667 
14392.728682753 14359733.333333 
14536.65596958 13788226.666667 
14682.022529276     13240400 
14828.842754569 12733366.666667 
14977.131182115 12238433.333333 
15126.902493936 11776766.666667 
15278.171518875 11330633.333333 
15430.953234064 10904333.333333 
15585.262766404 10495166.666667 
15741.115394068     10104180 
15898.526548009      9699250 
16057.511813489      9298270 
16218.086931624      9000265 
16380.26780094      8612380 
16544.07047895      8413630 
16709.511183739      7916755 
16876.606295577      7743940 
17045.372358532      7472595 
17215.826082118      7046140 
17387.984342939      6814865 
17561.864186368      6609640 
17737.482828232      6392955 
17914.857656514      6112230 
18094.006233079      5737535 
18274.94629541      5608340 
18457.695758364      5429870 
18642.272715948      5139315 
18828.695443107      5040065 
19016.982397539      4831205 
19207.152221514      4634370 
19399.223743729      4362070 
19593.215981166      4282045 
19789.148140978      4114380 
19987.039622388      3954805 
20186.910018612      3802925 
20388.779118798      3656025 
20592.666909986      3520390 
20798.593579086      3388990 
21006.579514877      3259825 
21216.645310025      3143980 
21428.811763126      3024285 
21643.099880757      2848980 
21859.530879564      2766185 
22078.12618836      2668755 
22298.907450244      2575690 
22521.896524746      2486600 
22747.115489993      2380750 
22974.586644893      2282255 
23204.332511342      2207895 
23436.375836456 2116583.3333333 
23670.73959482      2029635 
23907.446990769      1963405 
24146.521460676 1884453.3333333 
24387.986675283      1809235 
24631.866542036      1737010 
24878.185207456      1669230 
25126.967059531      1604090 
25378.236730126      1542890 
25632.019097427 1483313.3333333 
25888.339288402      1426495 
26147.222681286      1349740 
26408.694908098 1313273.3333333 
26672.781857179      1260575 
26939.509675751 1221463.3333333 
27208.904772509 1168346.6666667 
27480.993820234 1112756.6666667 
27755.803758436      1080180 
28033.361796021      1042650 
28313.695413981 999300.66666667 
28596.832368121 949935.66666667 
28882.800691802       920111 
29171.62869872 883318.66666667 
29463.344985707       848334 
29757.978435564 815056.66666667 
30055.55821992 777825.66666667 
30356.113802119 749398.33333333 
30659.67494014 724554.33333333 
30966.271689541       697205 
31275.934406437       671131 
31588.693750501 646274.66666667 
31904.580688006     623313.2 
32223.626494886     596252.5 
32545.862759835       574489 
32871.321387434     547380.5 
33200.034601308       528660 
33532.034947321       510250 
33867.355296794     492614.5 
34206.028849762       470208 
34548.08913826       454201 
34893.570029642       438940 
35242.505729939     419514.5 
35594.930787238       401182 
35950.880095111     383810.5 
36310.388896062       371371 
36673.492785022       359490 
37040.227712872       342051 
37410.629990001     327232.5 
37784.736289901       316362 
38162.5836528       303429 
38544.209489328     291162.5 
38929.651584221     279377.5 
39318.948100064       268429 
39712.137581064     257695.5 
40109.258956875     244664.5 
40510.351546444       238170 
40915.455061908       229163 
41324.609612527     219978.5 
41737.855708653     212228.5 
42155.234265739       204403 
42576.786608396       196835 
43002.55447448       189743 
43432.580019225     182234.5 
43866.905819417       174585 
44305.574877612       167118 
44748.630626388     161306.5 
45196.116932652       155711 
45648.078101978 149055.33333333 
46104.558882998       140703 
46565.604471828       136603 
47031.260516546 132219.66666667 
47501.573121712       126776 
47976.588852929     122629.5 
48456.354741458 117687.33333333 
48940.918288873       112977 
49430.327471761 108513.66666667 
49924.630746479     104255.5 
50423.877053944 100215.46666667 
50928.115824483      95368.3 
51437.396982728 92613.266666667 
51951.770952555      89194.4 
52471.288662081      85866.1 
52996.001548702 82069.266666667 
53525.961564189     79059.05 
54061.221179831 76195.266666667 
54601.833391629 72921.233333333 
55147.851725545      70322.2 
55699.330242801 67845.333333333 
56256.323545229      65010.7 
56818.886780681      62317.7 
57387.075648488      59771.4 
57960.946404973      57354.6 
58540.555869022 54558.366666667 
59125.961427713 52723.566666667 
59717.22104199 50795.333333333 
60314.39325241      48816.8 
60917.537184934      46933.1 
61526.712556783 45139.766666667 
62141.979682351      43417.2 
62763.399479174      41704.4 
63391.033473966 40248.333333333 
64024.943808706 38458.814285714 
64665.193246793      37120.3 
65311.845179261      35782.6 
65964.963631053     34088.05 
66624.613267364      32879.4 
67290.859400038      31614.9 
67963.767994038     30269.55 
68643.405673978      29226.9 
69329.839730718      28233.7 
70023.138128025     26970.75 
70723.369509305      25777.6 
71430.603204399      24923.7 
72144.909236443     24108.25 
72866.358328807     23070.15 
73595.021912095     22070.85 
74330.972131216     20680.15 
75074.281852528     20240.15 
75825.024671053      19640.3 
76583.274917764     19033.65 
77349.107666942      18259.4 
78122.598743611      17524.3 
78903.824731047     16825.75 
79692.862978358     16161.55 
80489.791608141     15529.75 
81294.689524223     14926.85 
82107.636419465      14355.7 
82928.712783659      13810.7 
83757.999911496     13290.75 
84595.579910611 12676.133333333 
85441.535709717      12093.9 
86295.951066814     11637.95 
87158.910577482        11137 
88030.499683257        10830 
88910.80468009     10446.05 
89799.912726891 9990.0633333333 
90697.91185416     9556.905 
91604.890972701     9228.065 
92520.939882428 8836.8733333333 
93446.149281253     8441.045 
94380.610774065     8182.055 
95324.416881806      7845.32 
96277.661050624      7524.58 
97240.43766113      7220.86 
98212.842037741     6931.635 
99194.970458119      6710.78 
100186.9201627      6550.74 
199060.83304441       406.21 
399467.9878358      24.7559 
594753.39981818      4.80675 
793700.71765891      1.50115 
997811.18987739     0.608534 
1193529.3359837     0.290972 
1399507.0114645     0.155926 
