#  WAVELENGTH	        FLUX	
#  (ANGSTROM)	(ERG/CM2/S/A)	
############	############	
469.4513122327  1.15395E-24 
478.88728360858  5.23123E-24 
488.51291800911  2.22288E-23 
498.3320276611  8.87623E-23 
503.31534793771  2.63601E-22 
508.34850141708  6.47348E-22 
518.56630629557   1.7793E-21 
528.98948905211  6.05464E-21 
539.62217778206  1.93417E-20 
545.01839955988  5.97462E-20 
555.97326939103  1.75823E-19 
567.14833210579   4.9681E-19 
578.54801358112  1.33625E-18 
584.33349371693    3.541E-18 
596.07859694064  8.96703E-18 
608.05977673914  2.19761E-17 
614.14037450653  5.21924E-17 
626.48459603412  1.20337E-16 
639.0769364144  2.69855E-16 
645.46770577855  5.89152E-16 
651.92238283633  1.07999E-15 
658.44160666469  1.81147E-15 
671.67628295866  3.71665E-15 
678.39304578824  7.45335E-15 
692.02874600859  1.46247E-14 
698.94903346867  2.80866E-14 
712.99790904139  5.63181E-14 
720.12788813181  1.03861E-13 
734.60245868325  1.77415E-13 
741.94848327009   3.1635E-13 
749.36796810279  5.54688E-13 
764.43026426165  9.56977E-13 
772.07456690427  1.62553E-12 
779.79531257331  2.72058E-12 
787.59326569905  4.48142E-12 
803.4238903396  7.29887E-12 
811.45812924299  1.17229E-11 
819.57271053542  1.85867E-11 
827.76843764078  2.91129E-11 
844.40658323736   4.5063E-11 
852.85064906973  6.89583E-11 
861.37915556043  1.04375E-10 
869.99294711603  1.56257E-10 
878.69287658719  2.31712E-10 
887.47980535306  3.40118E-10 
896.3546034066  4.94379E-10 
914.37133093507   3.46227E-6 
923.51504424442   1.19515E-5 
932.75019468686   1.70511E-5 
942.07769663373   2.56768E-5 
951.49847360007   3.84322E-5 
961.01345833607   5.47562E-5 
970.62359291943   7.51619E-5 
980.32982884862  0.000107444 
990.13312713711  0.000147336 
1000.0344584085  0.000209308 
1010.0348029926  0.000284201 
1020.1351510225  0.000381384 
1030.3365025327  0.000526924 
1040.639867558  0.000713287 
1051.0462662336  0.000955852 
1061.556728896   0.00125678 
1072.1722961849   0.00167083 
1082.8940191468   0.00220404 
1093.7229593382   0.00285382 
1104.6601889316   0.02254898 
1115.7067908209    0.0520347 
1126.8638587291    0.0719934 
1138.1324973164     0.088356 
1149.5138222896    0.0895438 
1161.0089605125     0.108304 
1172.6190501176     0.106397 
1184.3452406188    0.1230622 
1196.188693025    0.0417872 
1208.1505799552    0.0263212 
1220.2320857548    0.0585297 
1232.4344066123     0.124947 
1244.7587506785     0.353846 
1257.2063381852     0.698289 
1269.7784015671      1.16222 
1282.4761855828      2.42864 
1295.3009474386      3.16311 
1308.253956913      5.25437 
1321.3364964821      7.17056 
1334.5498614469     11.02697 
1347.8953600614      15.0655 
1361.374313662      19.0419 
1374.9880567986     25.43815 
1388.7379373666      34.8617 
1402.6253167403     45.21275 
1416.6515699077      57.0544 
1430.8180856068 69.147741176471 
1445.1262664628      91.0683 
1459.5775291275      105.779 
1474.1733044187      134.328 
1488.9150374629      174.457 
1503.8041878376 212.17595454545 
1518.8422297159      262.604 
1534.0306520131      441.389 
1549.3709585332      558.717 
1564.8646681186     649.7255 
1580.5133147997    1005.4305 
1596.3184479477      1167.06 
1612.2816324272     1239.735 
1628.4044487515      1538.64 
1644.688493239      1555.34 
1661.1353781714     1979.185 
1677.7467319531      3161.16 
1694.5241992726     3839.815 
1711.4694412654     7362.605 
1728.584135678      10884.9 
1745.8699770348      15448.3 
1763.3286768051      16627.8 
1780.9619635732     24447.15 
1798.7715832089      23395.1 
1816.759299041        22698 
1834.9268920314     29763.45 
1853.2761609517      43234.4 
1871.8089225613     51493.25 
1890.5270117869     63506.65 
1909.4322819047     64091.75 
1928.5266047238      65229.9 
1947.811870771 114327.27272727 
1967.2899894787 124284.17647059 
1986.9628893735 133362.61904762 
2006.8325182673       122363 
2026.9008434499     174164.5 
2047.1698518844       158227 
2067.6415504033     252579.9 
2088.3179659073     276523.5 
2109.2011455664     294179.5 
2130.293157022     274118.5 
2151.5960885923     314929.5 
2173.1120494782       338455 
2194.843169973 380823.33333333 
2216.7916016727     398470.5 
2238.9595176894       377377 
2261.3491128663       374349 
2283.962603995 472743.66666667 
2306.8022300349       455481 
2329.8702523353       205480 
2353.1689548586       263706 
2376.7006444072       159330 
2400.4676508513     239007.5 
2424.4723273598 640616.66666667 
2448.7170506334     698363.5 
2473.2042211397 613183.66666667 
2497.9362633511 737992.56521739 
2522.9156259846 571395.22222222 
2548.1447822445       676600 
2573.6262300669       590588 
2599.3624923676 421371.33333333 
2625.3561172913    1104921.5 
2651.6096784642 1329236.6666667 
2678.1257752488      1288660 
2704.9070330013      1169250 
2731.9561033313 826811.66666667 
2759.2756643647 966261.66666667 
2786.8684210083       287374 
2814.7371052184 1383406.6666667 
2842.8844762706 1524746.6666667 
2871.3133210333 1743523.3333333 
2900.0264542436      2138680 
2929.026718786      2044235 
2958.3169859739      2256310 
2987.9001558336      2369200 
3017.779157392      2469930 
3047.9569489659      2555475 
3078.4365184556      2750560 
3109.2208836401      2684820 
3140.3130924765      2879920 
3171.7162234013      2670070 
3203.4333856353      2779830 
3235.4677194916      2982700 
3267.8223966866      3205290 
3300.5006206534      3333965 
3333.50562686      3267050 
3366.8406831286      3278455 
3400.5090899598      3556650 
3434.5141808594      3629470 
3468.859322668      3586070 
3503.5479158947      3773550 
3538.5833950537      3908800 
3573.9692290042      3819030 
3609.7089212942      3960628 
3645.8060105072      4223350 
3682.2640706123      5443870 
3719.0867113184      8707505 
3756.2775784316     10592000 
3793.8403542159     11345100 
3831.778757758     12661150 
3870.0965453356     10631900 
3908.797510789      9315235 
3947.8854858969      8960825 
3987.3643407558     13029650 
4027.2379841634     13260050 
4067.510364005     13161600 
4108.1854676451     12499600 
4149.2673223215     13422900 
4190.7599955447     13155950 
4232.6675955002     13274000 
4274.9942714552     12674950 
4317.7442141697     12013250 
4360.9216563114     13189700 
4404.5308728746     12844750 
4448.5761816033     12977700 
4493.0619434193     13103150 
4537.9925628535     12960050 
4583.3724884821     12985000 
4629.2062133669     13010100 
4675.4982755006     12749450 
4722.2532582556     12976900 
4769.4757908381 12789066.666667 
4817.1705487465     12252350 
4865.342254234 11648066.666667 
4913.9956767763     12162700 
4963.1356335441 11931733.333333 
5012.7669898795     11912950 
5062.8946597783 11857666.666667 
5113.5236063761     11444800 
5164.6588424398     11153700 
5216.3054308642     11257050 
5268.4684851729 11030666.666667 
5321.1531700246     10993800 
5374.3647017249     10852750 
5428.1083487421 10816866.666667 
5482.3894322295 10709833.333333 
5537.2133265518 10601133.333333 
5592.5854598173     10494450 
5648.5113144155 10324466.666667 
5704.9964275597     10256200 
5762.0463918353 10118366.666667 
5819.6668557536 9959306.6666667 
5877.8635243112 9754066.6666667 
5936.6421595543 9657153.3333333 
5996.0085811498 9488753.3333333 
6055.9686669613      9343640 
6116.5283536309      9066460 
6177.6936371672 9033106.6666667 
6239.4705735389 8833413.3333333 
6301.8652792743      8722030 
6364.883932067      8589440 
6428.5327713877    8396332.5 
6492.8180991016      8188720 
6557.7462800926 7640343.3333333 
6623.3237428935 8067316.6666667 
6689.5569803225    7924367.5 
6756.4525501257 7782153.3333333 
6824.0170756269    7637257.5 
6892.2572463832 7504483.3333333 
6961.179818847      7357185 
7030.7916170355 7232903.3333333 
7101.0995332059    7072927.5 
7172.1105285379      6929930 
7243.8316338233    6821162.5 
7316.2699501615      6704480 
7389.4326496631    6559877.5 
7463.3269761598      6433120 
7537.9602459214    6325887.5 
7613.3398483806 6200503.3333333 
7689.4732468644      6084250 
7766.367979333      5959575 
7844.0316591264      5843855 
7922.4719757176    5724132.5 
8001.6966954748    5616092.5 
8081.7136624296      5508670 
8162.5307990539      5375330 
8244.1561070444      5279130 
8326.5976681148    5138772.5 
8409.863644796      5085716 
8493.9622812439      4856735 
8578.9019040564      5075250 
8664.6909230969      4845378 
8751.3378323279      4977185 
8838.8512106512      4781255 
8927.2397227577      4721304 
9016.5121199853    4621377.5 
9106.6772411851      4587934 
9197.744013597    4345282.5 
9289.721453733      4399520 
9382.6186682703      4268692 
9476.444854953      4110204 
9571.2093035025    4083082.5 
9666.9213965375      3998402 
9763.5906105029      3917072 
9861.226516608      3818014 
9959.838781774 3724334.6666667 
10059.437169592      3596355 
10160.031541288      3568940 
10261.631856701      3483965 
10364.248175268      3411835 
10467.89065702      3318810 
10572.56956359 3216876.6666667 
10678.295259226      3130745 
10785.078211819      3059140 
10892.928993937      2930245 
11001.858283876      2947230 
11111.876866715      2878180 
11222.995635382 2791393.3333333 
11335.225591736      2716005 
11448.577847653      2671985 
11563.06362613      2581650 
11678.694262391      2514790 
11795.481205015      2453800 
11913.436017065 2404123.3333333 
12032.570377236      2342385 
12152.896081008      2302200 
12274.425041818 2240616.6666667 
12397.169292236      2186815 
12521.140985159 2125163.3333333 
12646.35239501      2077830 
12772.81591896      1987660 
12900.54407815 1964973.3333333 
13029.549518932      1916440 
13159.845014121      1868190 
13291.443464262      1824245 
13424.357898905      1780080 
13558.601477894 1727263.3333333 
13694.187492673 1671976.6666667 
13831.129367599      1638065 
13969.440661275 1599256.6666667 
14109.135067888 1552843.3333333 
14250.226418567 1509323.3333333 
14392.728682753 1456456.6666667 
14536.65596958 1424338.6666667 
14682.022529276      1382570 
14828.842754569 1344096.6666667 
14977.131182115      1300310 
15126.902493936 1271626.6666667 
15278.171518875 1233536.6666667 
15430.953234064      1212100 
15585.262766404      1184430 
15741.115394068 1151193.3333333 
15898.526548009 1144598.5714286 
16057.511813489      1079030 
16218.086931624      1082635 
16380.26780094      1015200 
16544.07047895      1020610 
16709.511183739     958126.5 
16876.606295577       949383 
17045.372358532     918730.5 
17215.826082118     862841.5 
17387.984342939       843877 
17561.864186368       819279 
17737.482828232     796923.5 
17914.857656514     767110.5 
18094.006233079     722877.5 
18274.94629541     709190.5 
18457.695758364       688566 
18642.272715948     654418.5 
18828.695443107     641533.5 
19016.982397539     621501.5 
19207.152221514     598300.5 
19399.223743729       566046 
19593.215981166       555439 
19789.148140978       536372 
19987.039622388       517950 
20186.910018612     499265.5 
20388.779118798       482546 
20592.666909986     465484.5 
20798.593579086       449720 
21006.579514877       434212 
21216.645310025     419445.5 
21428.811763126       406247 
21643.099880757 384816.66666667 
21859.530879564       373537 
22078.12618836       361307 
22298.907450244       350137 
22521.896524746     338276.5 
22747.115489993 325566.66666667 
22974.586644893     313191.5 
23204.332511342     303526.5 
23436.375836456       291902 
23670.73959482     280763.5 
23907.446990769       272055 
24146.521460676       261956 
24387.986675283       252360 
24631.866542036       243566 
24878.185207456       234070 
25126.967059531 226401.33333333 
25378.236730126       220036 
25632.019097427       210566 
25888.339288402     205304.5 
26147.222681286 194061.66666667 
26408.694908098       189842 
26672.781857179       181006 
26939.509675751       177516 
27208.904772509 170431.66666667 
27480.993820234 161987.33333333 
27755.803758436     158267.5 
28033.361796021 153106.66666667 
28313.695413981       147159 
28596.832368121       140158 
28882.800691802 136118.66666667 
29171.62869872 131008.66666667 
29463.344985707 126148.33333333 
29757.978435564       121478 
30055.55821992 116174.33333333 
30356.113802119 112557.33333333 
30659.67494014 108676.33333333 
30966.271689541 104716.33333333 
31275.934406437 101072.23333333 
31588.693750501 97575.533333333 
31904.580688006     94306.14 
32223.626494886      90438.1 
32545.862759835      87339.7 
32871.321387434      83589.8 
33200.034601308      80489.8 
33532.034947321        77765 
33867.355296794     75223.15 
34206.028849762      72055.9 
34548.08913826      69749.4 
34893.570029642     67526.05 
35242.505729939      64660.3 
35594.930787238      61999.8 
35950.880095111     59453.95 
36310.388896062      57451.9 
36673.492785022     55781.35 
37040.227712872      53604.8 
37410.629990001      51170.8 
37784.736289901     49471.15 
38162.5836528      47657.7 
38544.209489328      45845.8 
38929.651584221     43887.85 
39318.948100064     42443.25 
39712.137581064     40764.15 
40109.258956875        38896 
40510.351546444      37861.5 
40915.455061908      36493.9 
41324.609612527     34974.65 
41737.855708653     33882.55 
42155.234265739     32699.15 
42576.786608396      31547.8 
43002.55447448      30439.4 
43432.580019225     29229.15 
43866.905819417        28119 
44305.574877612      26950.3 
44748.630626388     26056.65 
45196.116932652      25188.2 
45648.078101978      24149.9 
46104.558882998     23015.95 
46565.604471828      22278.1 
47031.260516546 21517.066666667 
47501.573121712      20660.4 
47976.588852929     20009.15 
48456.354741458 19226.966666667 
48940.918288873      18481.9 
49430.327471761 17779.666666667 
49924.630746479     17096.65 
50423.877053944 16460.433333333 
50928.115824483      15780.9 
51437.396982728 15262.566666667 
51951.770952555     14720.65 
52471.288662081      14170.1 
52996.001548702      13584.5 
53525.961564189      13064.1 
54061.221179831      12641.6 
54601.833391629 12113.966666667 
55147.851725545      11658.8 
55699.330242801 11296.366666667 
56256.323545229        10841 
56818.886780681      10380.4 
57387.075648488 9993.2833333333 
57960.946404973 9603.0433333333 
58540.555869022 9202.4566666667 
59125.961427713 8847.8533333333 
59717.22104199      8537.88 
60314.39325241 8214.9033333333 
60917.537184934      7906.12 
61526.712556783 7613.6666666667 
62141.979682351 7332.2833333333 
62763.399479174 7044.8233333333 
63391.033473966 6810.6266666667 
64024.943808706 6515.9242857143 
64665.193246793       6294.2 
65311.845179261     6074.365 
65964.963631053      5794.06 
66624.613267364      5595.24 
67290.859400038      5392.07 
67963.767994038     5160.885 
68643.405673978      4989.21 
69329.839730718      4821.61 
70023.138128025     4613.715 
70723.369509305      4412.39 
71430.603204399      4272.52 
72144.909236443      4132.52 
72866.358328807      3962.87 
73595.021912095     3798.175 
74330.972131216       3612.5 
75074.281852528      3493.86 
75825.024671053      3387.47 
76583.274917764     3285.545 
77349.107666942     3151.175 
78122.598743611      3031.29 
78903.824731047      2913.36 
79692.862978358     2800.995 
80489.791608141     2694.065 
81294.689524223     2588.065 
82107.636419465      2495.18 
82928.712783659     2402.415 
83757.999911496     2314.025 
84595.579910611 2209.6266666667 
85441.535709717     2110.375 
86295.951066814      2031.83 
87158.910577482      1959.63 
88030.499683257      1894.29 
88910.80468009      1828.95 
89799.912726891 1750.5533333333 
90697.91185416      1676.59 
91604.890972701      1620.21 
92520.939882428 1552.6666666667 
93446.149281253      1486.51 
94380.610774065      1440.24 
95324.416881806 1381.8733333333 
96277.661050624      1327.02 
97240.43766113      1274.54 
98212.842037741      1223.72 
99194.970458119      1186.37 
100186.9201627      1158.66 
199060.83304441      75.4167 
399467.9878358      4.75717 
594753.39981818     0.937535 
793700.71765891     0.295392 
997811.18987739     0.120452 
1193529.3359837    0.0578387 
1399507.0114645    0.0310936 
