#  WAVELENGTH	        FLUX	
#  (ANGSTROM)	(ERG/CM2/S/A)	
############	############	
384.7362270329  2.72206E-23 
392.46942519626  2.36399E-22 
404.36164124913  1.64551E-21 
412.48931023824  8.64149E-21 
420.78034537403   3.5472E-20 
429.23803031605  1.37917E-19 
437.8657147254  8.21063E-19 
446.66681559138  3.84397E-18 
455.64481858477  1.45329E-17 
469.4513122327  5.98728E-17 
478.88728360858  2.32023E-16 
488.51291800911     8.49E-16 
498.3320276611  2.94362E-15 
503.31534793771  5.96416E-15 
508.34850141708  1.22573E-14 
518.56630629557  3.05105E-14 
528.98948905211  9.16238E-14 
539.62217778206  2.63724E-13 
545.01839955988  7.29263E-13 
555.97326939103  1.94155E-12 
567.14833210579  4.98666E-12 
578.54801358112  1.23792E-11 
584.33349371693  2.97564E-11 
596.07859694064  6.93687E-11 
608.05977673914  1.57071E-10 
614.14037450653  3.45949E-10 
626.48459603412  7.42136E-10 
639.0769364144   1.55263E-9 
645.46770577855   3.17141E-9 
651.92238283633   5.52404E-9 
658.44160666469   8.87422E-9 
671.67628295866   1.71545E-8 
678.39304578824   3.24948E-8 
692.02874600859   6.03698E-8 
698.94903346867   1.10088E-7 
712.99790904139   2.08855E-7 
720.12788813181   3.67213E-7 
734.60245868325    6.0177E-7 
741.94848327009   1.02643E-6 
749.36796810279   1.72462E-6 
764.43026426165   2.85619E-6 
772.07456690427    4.6651E-6 
779.79531257331     7.519E-6 
787.59326569905   1.19637E-5 
803.4238903396   1.88038E-5 
811.45812924299   2.92066E-5 
819.57271053542   4.48478E-5 
827.76843764078   6.81137E-5 
844.40658323736  0.000102357 
852.85064906973  0.000152253 
861.37915556043  0.000224253 
869.99294711603  0.000327173 
878.69287658719  0.000472962 
887.47980535306  0.000677669 
896.3546034066  0.000962727 
914.37133093507    0.0699803 
923.51504424442     0.259794 
932.75019468686     0.322832 
942.07769663373     0.450714 
951.49847360007     0.655502 
961.01345833607     0.822133 
970.62359291943     0.853347 
980.32982884862      1.37207 
990.13312713711      1.64235 
1000.0344584085      2.17547 
1010.0348029926      2.37767 
1020.1351510225      2.63701 
1030.3365025327      4.22686 
1040.639867558      5.44072 
1051.0462662336      6.73835 
1061.556728896      7.99148 
1072.1722961849      9.94714 
1082.8940191468      12.0617 
1093.7229593382      14.0993 
1104.6601889316     78.06325 
1115.7067908209      151.627 
1126.8638587291      182.478 
1138.1324973164      195.359 
1149.5138222896      181.708 
1161.0089605125      190.688 
1172.6190501176      167.585 
1184.3452406188    206.12115 
1196.188693025      35.7628 
1208.1505799552      8.97177 
1220.2320857548      42.3871 
1232.4344066123      108.853 
1244.7587506785     314.1535 
1257.2063381852      583.615 
1269.7784015671      916.436 
1282.4761855828      1742.72 
1295.3009474386      2137.62 
1308.253956913      3733.26 
1321.3364964821      7410.03 
1334.5498614469     13520.88 
1347.8953600614      24109.6 
1361.374313662      33487.1 
1374.9880567986      52255.9 
1388.7379373666      80064.7 
1402.6253167403       121566 
1416.6515699077       184626 
1430.8180856068 221843.58823529 
1445.1262664628 375679.46153846 
1459.5775291275       433194 
1474.1733044187     530691.5 
1488.9150374629       723111 
1503.8041878376 828712.13636364 
1518.8422297159       937361 
1534.0306520131      1960415 
1549.3709585332      2254130 
1564.8646681186      2323470 
1580.5133147997      3392630 
1596.3184479477      3368320 
1612.2816324272      3100350 
1628.4044487515      3370270 
1644.688493239      3291335 
1661.1353781714 3261880.4545455 
1677.7467319531      4963450 
1694.5241992726      4641430 
1711.4694412654      5062910 
1728.584135678      5607740 
1745.8699770348      6459780 
1763.3286768051      5894595 
1780.9619635732      6716255 
1798.7715832089      6916045 
1816.759299041      6541080 
1834.9268920314      6208180 
1853.2761609517      6507235 
1871.8089225613      6940480 
1890.5270117869      6951660 
1909.4322819047      7428420 
1928.5266047238      7393360 
1947.811870771 8170146.3636364 
1967.2899894787 8091380.5882353 
1986.9628893735      7727760 
2006.8325182673      7248500 
2026.9008434499      8048335 
2047.1698518844      7583865 
2067.6415504033    8701391.5 
2088.3179659073      8182100 
2109.2011455664      8174485 
2130.293157022      7198540 
2151.5960885923      7808080 
2173.1120494782      7634050 
2194.843169973 7909223.3333333 
2216.7916016727      7724890 
2238.9595176894      7253960 
2261.3491128663      7514615 
2283.962603995 7894703.3333333 
2306.8022300349      7486435 
2329.8702523353      5841020 
2353.1689548586      6543960 
2376.7006444072      5268105 
2400.4676508513      5834125 
2424.4723273598 7693893.3333333 
2448.7170506334      7675950 
2473.2042211397 7502916.6666667 
2497.9362633511 8039125.6521739 
2522.9156259846 6949791.4814815 
2548.1447822445      7500400 
2573.6262300669 7778056.6666667 
2599.3624923676 7099593.3333333 
2625.3561172913      9145040 
2651.6096784642      9443320 
2678.1257752488      9155690 
2704.9070330013 8819856.6666667 
2731.9561033313 8125686.6666667 
2759.2756643647      8867600 
2786.8684210083      5267910 
2814.7371052184      9859090 
2842.8844762706 9452646.6666667 
2871.3133210333 9609666.6666667 
2900.0264542436     10722500 
2929.026718786     10387750 
2958.3169859739     10745600 
2987.9001558336     11077550 
3017.779157392     11197400 
3047.9569489659     11128050 
3078.4365184556     11483700 
3109.2208836401     11158900 
3140.3130924765     11541450 
3171.7162234013     11078600 
3203.4333856353     11371800 
3235.4677194916     11548200 
3267.8223966866     11750100 
3300.5006206534     11931950 
3333.50562686     11663600 
3366.8406831286     11773450 
3400.5090899598     12208600 
3434.5141808594     12239300 
3468.859322668     12072850 
3503.5479158947     12451800 
3538.5833950537     12505450 
3573.9692290042     12391800 
3609.7089212942     12501820 
3645.8060105072     12807300 
3682.2640706123     17936600 
3719.0867113184     42399200 
3756.2775784316     49571750 
3793.8403542159     51436250 
3831.778757758     56394700 
3870.0965453356     46966400 
3908.797510789     51766350 
3947.8854858969     48995350 
3987.3643407558     54595200 
4027.2379841634     53503950 
4067.510364005     52325600 
4108.1854676451     47511150 
4149.2673223215 50643533.333333 
4190.7599955447     49406700 
4232.6675955002     48397000 
4274.9942714552     46879000 
4317.7442141697     42000750 
4360.9216563114     45878000 
4404.5308728746     44932550 
4448.5761816033     44194600 
4493.0619434193     43201150 
4537.9925628535     42064600 
4583.3724884821     41856300 
4629.2062133669 41070966.666667 
4675.4982755006     40013150 
4722.2532582556     39727150 
4769.4757908381 38758866.666667 
4817.1705487465     36771950 
4865.342254234     34393700 
4913.9956767763     35913500 
4963.1356335441 35143366.666667 
5012.7669898795     34392950 
5062.8946597783 33722466.666667 
5113.5236063761     32772400 
5164.6588424398 31712133.333333 
5216.3054308642     31122500 
5268.4684851729     30351000 
5321.1531700246     29737500 
5374.3647017249     29096350 
5428.1083487421 28474533.333333 
5482.3894322295     27734400 
5537.2133265518 27066566.666667 
5592.5854598173     26473350 
5648.5113144155     25845400 
5704.9964275597     25210000 
5762.0463918353     24541500 
5819.6668557536 23890566.666667 
5877.8635243112 23208333.333333 
5936.6421595543     22648400 
5996.0085811498 22069666.666667 
6055.9686669613 21500833.333333 
6116.5283536309 20889766.666667 
6177.6936371672     20417400 
6239.4705735389     19847300 
6301.8652792743 19362366.666667 
6364.883932067     18876600 
6428.5327713877     18327175 
6492.8180991016 17386033.333333 
6557.7462800926 15815433.333333 
6623.3237428935 16976733.333333 
6689.5569803225     16506300 
6756.4525501257 16048333.333333 
6824.0170756269     15600400 
6892.2572463832     15172100 
6961.179818847     14752575 
7030.7916170355 14355333.333333 
7101.0995332059     13954575 
7172.1105285379 13582233.333333 
7243.8316338233     13221600 
7316.2699501615     12876500 
7389.4326496631     12534025 
7463.3269761598     12154425 
7537.9602459214     11813050 
7613.3398483806 11506133.333333 
7689.4732468644     11211925 
7766.367979333     10850750 
7844.0316591264     10564500 
7922.4719757176     10269550 
8001.6966954748    9989387.5 
8081.7136624296    9710937.5 
8162.5307990539    9448902.5 
8244.1561070444    9197572.5 
8326.5976681148      8881240 
8409.863644796      9058084 
8493.9622812439      9178485 
8578.9019040564    9724072.5 
8664.6909230969      9280442 
8751.3378323279      9626150 
8838.8512106512      8973255 
8927.2397227577      8863376 
9016.5121199853      8667555 
9106.6772411851      8552408 
9197.744013597      7866510 
9289.721453733      8059788 
9382.6186682703      7771718 
9476.444854953      7271490 
9571.2093035025    7296237.5 
9666.9213965375      7092284 
9763.5906105029      6873276 
9861.226516608      6647220 
9959.838781774      6399122 
10059.437169592      6093385 
10160.031541288      6066105 
10261.631856701      5877360 
10364.248175268      5698680 
10467.89065702      5514940 
10572.56956359      5298380 
10678.295259226      5102455 
10785.078211819      4959585 
10892.928993937      4627585 
11001.858283876      4679085 
11111.876866715      4542185 
11222.995635382 4366436.6666667 
11335.225591736      4220225 
11448.577847653      4104115 
11563.06362613 3950493.3333333 
11678.694262391      3808055 
11795.481205015      3701865 
11913.436017065 3584936.6666667 
12032.570377236      3465045 
12152.896081008      3373280 
12274.425041818      3259690 
12397.169292236      3152030 
12521.140985159      3046170 
12646.35239501      2949630 
12772.81591896      2785850 
12900.54407815 2744706.6666667 
13029.549518932      2657540 
13159.845014121      2573050 
13291.443464262      2493195 
13424.357898905      2415180 
13558.601477894 2326163.3333333 
13694.187492673 2239633.3333333 
13831.129367599      2173540 
13969.440661275 2108596.6666667 
14109.135067888      2033270 
14250.226418567 1961473.3333333 
14392.728682753 1887753.3333333 
14536.65596958 1828803.3333333 
14682.022529276      1767010 
14828.842754569 1704086.6666667 
14977.131182115 1638683.3333333 
15126.902493936      1595570 
15278.171518875 1544586.6666667 
15430.953234064 1516086.6666667 
15585.262766404      1477210 
15741.115394068 1437476.6666667 
15898.526548009 1422558.5714286 
16057.511813489      1331960 
16218.086931624      1332300 
16380.26780094      1248630 
16544.07047895      1251125 
16709.511183739      1175790 
16876.606295577      1161050 
17045.372358532      1124890 
17215.826082118      1058455 
17387.984342939      1034005 
17561.864186368      1003200 
17737.482828232     973745.5 
17914.857656514       935315 
18094.006233079       882063 
18274.94629541       864396 
18457.695758364       839113 
18642.272715948     797894.5 
18828.695443107       783750 
19016.982397539     755388.5 
19207.152221514     727317.5 
19399.223743729       688156 
19593.215981166       675170 
19789.148140978       650930 
19987.039622388     627702.5 
20186.910018612       605458 
20388.779118798     584256.5 
20592.666909986       563899 
20798.593579086       544498 
21006.579514877     525759.5 
21216.645310025       507845 
21428.811763126     491004.5 
21643.099880757       465115 
21859.530879564       451399 
22078.12618836     436581.5 
22298.907450244     422578.5 
22521.896524746       408956 
22747.115489993       393026 
22974.586644893     377841.5 
23204.332511342     366075.5 
23436.375836456 351777.33333333 
23670.73959482       338394 
23907.446990769       327601 
24146.521460676 315624.66666667 
24387.986675283       304318 
24631.866542036 294156.66666667 
24878.185207456       282338 
25126.967059531 273415.66666667 
25378.236730126       266496 
25632.019097427 254662.33333333 
25888.339288402       248568 
26147.222681286       234242 
26408.694908098 230386.33333333 
26672.781857179       218439 
26939.509675751 214968.33333333 
27208.904772509       206296 
27480.993820234 195569.33333333 
27755.803758436       191476 
28033.361796021 185192.66666667 
28313.695413981 177973.33333333 
28596.832368121 169044.33333333 
28882.800691802 164552.33333333 
29171.62869872 158346.66666667 
29463.344985707 152412.66666667 
29757.978435564 146752.33333333 
30055.55821992 140113.66666667 
30356.113802119       135803 
30659.67494014       131267 
30966.271689541       126563 
31275.934406437 122077.66666667 
31588.693750501 117795.66666667 
31904.580688006     113824.4 
32223.626494886       109129 
32545.862759835       105385 
32871.321387434     100524.5 
33200.034601308      97033.4 
33532.034947321      93790.4 
33867.355296794     90729.95 
34206.028849762     86830.05 
34548.08913826      84047.7 
34893.570029642     81350.35 
35242.505729939      77888.5 
35594.930787238     74746.85 
35950.880095111      71656.1 
36310.388896062      69116.6 
36673.492785022     67269.25 
37040.227712872      64741.7 
37410.629990001      61612.9 
37784.736289901      59675.8 
38162.5836528        57517 
38544.209489328      55449.3 
38929.651584221      52943.2 
39318.948100064     51394.95 
39712.137581064     49323.65 
40109.258956875        46870 
40510.351546444     45848.35 
40915.455061908     44171.25 
41324.609612527      42184.7 
41737.855708653     41030.65 
42155.234265739     39570.85 
42576.786608396     38172.25 
43002.55447448     36834.75 
43432.580019225      35261.6 
43866.905819417 34021.033333333 
44305.574877612     32621.75 
44748.630626388     31489.15 
45196.116932652     30440.45 
45648.078101978 29188.733333333 
46104.558882998      27737.6 
46565.604471828     26827.25 
47031.260516546      26004.4 
47501.573121712     24966.45 
47976.588852929     24187.25 
48456.354741458      23234.9 
48940.918288873      22337.1 
49430.327471761      21492.7 
49924.630746479      20652.6 
50423.877053944      19891.4 
50928.115824483      19019.9 
51437.396982728      18443.8 
51951.770952555      17852.3 
52471.288662081      17130.5 
52996.001548702 16470.733333333 
53525.961564189     15770.05 
54061.221179831 15327.033333333 
54601.833391629      14682.6 
55147.851725545      14074.7 
55699.330242801      13696.1 
56256.323545229 13141.233333333 
56818.886780681 12542.166666667 
57387.075648488 12112.533333333 
57960.946404973 11632.433333333 
58540.555869022 11110.066666667 
59125.961427713 10680.433333333 
59717.22104199      10340.4 
60314.39325241 9949.9366666667 
60917.537184934      9576.89 
61526.712556783      9221.41 
62141.979682351      8880.17 
62763.399479174 8502.4733333333 
63391.033473966 8251.3566666667 
64024.943808706 7899.7228571429 
64665.193246793      7626.99 
65311.845179261       7364.9 
65964.963631053      7023.91 
66624.613267364      6786.67 
67290.859400038     6515.345 
67963.767994038      6253.37 
68643.405673978      6053.41 
69329.839730718     5840.945 
70023.138128025       5597.5 
70723.369509305     5342.915 
71430.603204399      5182.99 
72144.909236443     5002.875 
72866.358328807      4806.26 
73595.021912095      4600.09 
74330.972131216      4336.92 
75074.281852528     4232.935 
75825.024671053       4108.3 
76583.274917764     3984.675 
77349.107666942       3809.1 
78122.598743611      3676.28 
78903.824731047     3533.265 
79692.862978358     3397.055 
80489.791608141     3267.065 
81294.689524223      3127.42 
82107.636419465     3025.365 
82928.712783659     2912.625 
83757.999911496      2805.32 
84595.579910611      2678.75 
85441.535709717      2557.69 
86295.951066814      2454.13 
87158.910577482      2367.48 
88030.499683257     2295.115 
88910.80468009     2217.735 
89799.912726891 2121.1233333333 
90697.91185416     2032.885 
91604.890972701      1964.39 
92520.939882428 1880.2433333333 
93446.149281253     1794.775 
94380.610774065     1744.785 
95324.416881806 1673.7133333333 
96277.661050624      1608.71 
97240.43766113      1544.76 
98212.842037741      1480.09 
99194.970458119     1438.085 
100186.9201627      1404.48 
199060.83304441      91.0829 
399467.9878358      5.71689 
594753.39981818       1.1237 
793700.71765891     0.353503 
997811.18987739     0.143986 
1193529.3359837    0.0690857 
1399507.0114645    0.0371176 
