#  WAVELENGTH	        FLUX	
#  (ANGSTROM)	(ERG/CM2/S/A)	
############	############	
749.36796810279  3.82523E-25 
764.43026426165  9.75582E-25 
772.07456690427  2.42487E-24 
779.79531257331  5.88121E-24 
787.59326569905  1.39206E-23 
803.4238903396   3.2243E-23 
811.45812924299  7.30405E-23 
819.57271053542  1.62006E-22 
827.76843764078  3.52148E-22 
844.40658323736  7.49055E-22 
852.85064906973  1.55562E-21 
861.37915556043  3.17147E-21 
869.99294711603  6.35341E-21 
878.69287658719  1.24843E-20 
887.47980535306  2.42788E-20 
896.3546034066  4.60757E-20 
914.37133093507   2.0643E-16 
923.51504424442   8.8359E-16 
932.75019468686  1.39527E-15 
942.07769663373  2.18987E-15 
951.49847360007  3.40291E-15 
961.01345833607   7.2411E-15 
970.62359291943    9.632E-15 
980.32982884862  2.06451E-14 
990.13312713711  4.06935E-14 
1000.0344584085  5.61613E-14 
1010.0348029926  8.62779E-14 
1020.1351510225  1.47813E-13 
1030.3365025327  3.37377E-13 
1040.639867558  5.38589E-13 
1051.0462662336   7.0176E-13 
1061.556728896  1.70462E-12 
1072.1722961849  2.41906E-12 
1082.8940191468  5.23833E-12 
1093.7229593382  7.70724E-12 
1104.6601889316 1.483405E-11 
1115.7067908209   3.8711E-11 
1126.8638587291  6.71124E-11 
1138.1324973164  1.13379E-10 
1149.5138222896  1.74555E-10 
1161.0089605125  2.32154E-10 
1172.6190501176   3.9176E-10 
1184.3452406188   5.8326E-10 
1196.188693025  5.57251E-10 
1208.1505799552  2.03095E-10 
1220.2320857548   1.02654E-9 
1232.4344066123    3.2246E-9 
1244.7587506785   7.44286E-9 
1257.2063381852   1.42798E-8 
1269.7784015671   2.01901E-8 
1282.4761855828  3.251785E-8 
1295.3009474386    6.0922E-8 
1308.253956913   7.96171E-8 
1321.3364964821   1.07629E-7 
1334.5498614469  1.603475E-7 
1347.8953600614   2.64426E-7 
1361.374313662   3.23995E-7 
1374.9880567986  4.360645E-7 
1388.7379373666   6.10329E-7 
1402.6253167403   9.97267E-7 
1416.6515699077    1.3193E-6 
1430.8180856068 2.1461617647059E-6 
1445.1262664628 2.6775138461538E-6 
1459.5775291275   3.94155E-6 
1474.1733044187   4.90895E-6 
1488.9150374629   8.30398E-6 
1503.8041878376 1.0676690909091E-5 
1518.8422297159   1.65474E-5 
1534.0306520131   2.07095E-5 
1549.3709585332   2.85084E-5 
1564.8646681186  3.866875E-5 
1580.5133147997  5.852055E-5 
1596.3184479477   7.20854E-5 
1612.2816324272  9.123595E-5 
1628.4044487515  0.000124615 
1644.688493239 0.0001615405 
1661.1353781714 0.00023184954545455 
1677.7467319531  0.000337836 
1694.5241992726 0.0004611375 
1711.4694412654 0.0006550435 
1728.584135678 0.0009904455 
1745.8699770348   0.00121935 
1763.3286768051  0.001514655 
1780.9619635732   0.00233508 
1798.7715832089  0.003209065 
1816.759299041   0.00421337 
1834.9268920314   0.00505831 
1853.2761609517  0.006624255 
1871.8089225613  0.008894645 
1890.5270117869    0.0125392 
1909.4322819047    0.0167808 
1928.5266047238    0.0191257 
1947.811870771 0.030767681818182 
1967.2899894787 0.040365282352941 
1986.9628893735 0.048451833333333 
2006.8325182673   0.06087615 
2026.9008434499   0.07764295 
2047.1698518844    0.0951472 
2067.6415504033   0.11855221 
2088.3179659073    0.2616875 
2109.2011455664    0.3265115 
2130.293157022     0.410161 
2151.5960885923    0.4651475 
2173.1120494782    0.4927145 
2194.843169973 0.83598533333333 
2216.7916016727     1.134429 
2238.9595176894     1.982105 
2261.3491128663     1.640318 
2283.962603995 2.3484033333333 
2306.8022300349     4.835155 
2329.8702523353      5.54625 
2353.1689548586 3.7501633333333 
2376.7006444072      8.66114 
2400.4676508513    14.328325 
2424.4723273598      22.4235 
2448.7170506334     31.28605 
2473.2042211397 24.115566666667 
2497.9362633511 27.110013043478 
2522.9156259846 101.1885037037 
2548.1447822445    110.75035 
2573.6262300669 102.78223333333 
2599.3624923676 182.90333333333 
2625.3561172913       491.52 
2651.6096784642 519.40133333333 
2678.1257752488     430.1755 
2704.9070330013 585.18966666667 
2731.9561033313          636 
2759.2756643647 1176.3113333333 
2786.8684210083     1093.445 
2814.7371052184 907.91233333333 
2842.8844762706 424.98766666667 
2871.3133210333 1781.6226666667 
2900.0264542436      3395.03 
2929.026718786      3953.14 
2958.3169859739      3511.32 
2987.9001558336     4471.195 
3017.779157392      5810.85 
3047.9569489659      7214.55 
3078.4365184556      6025.74 
3109.2208836401     10857.55 
3140.3130924765     19386.55 
3171.7162234013      19927.7 
3203.4333856353     24203.95 
3235.4677194916      37824.5 
3267.8223966866      53920.5 
3300.5006206534     47854.35 
3333.50562686      41941.3 
3366.8406831286      30875.9 
3400.5090899598     47580.65 
3434.5141808594      43286.4 
3468.859322668     52474.75 
3503.5479158947     78028.05 
3538.5833950537     84777.95 
3573.9692290042      49949.6 
3609.7089212942      87598.2 
3645.8060105072       131200 
3682.2640706123     104354.6 
3719.0867113184        48790 
3756.2775784316       131953 
3793.8403542159      96728.7 
3831.778757758      98349.1 
3870.0965453356      99195.9 
3908.797510789      92102.6 
3947.8854858969      88978.5 
3987.3643407558       225775 
4027.2379841634     216286.5 
4067.510364005     241163.5 
4108.1854676451     187500.5 
4149.2673223215 197129.66666667 
4190.7599955447     155053.5 
4232.6675955002     210456.5 
4274.9942714552     226567.5 
4317.7442141697     323579.5 
4360.9216563114       328256 
4404.5308728746     332814.5 
4448.5761816033 386212.66666667 
4493.0619434193     419562.5 
4537.9925628535     443201.5 
4583.3724884821     455864.5 
4629.2062133669       470908 
4675.4982755006       474573 
4722.2532582556     461415.5 
4769.4757908381 430786.66666667 
4817.1705487465       499580 
4865.342254234 528178.66666667 
4913.9956767763       506165 
4963.1356335441 428158.66666667 
5012.7669898795     396433.5 
5062.8946597783 362868.66666667 
5113.5236063761       330604 
5164.6588424398 356314.33333333 
5216.3054308642       606344 
5268.4684851729 624293.66666667 
5321.1531700246 647774.66666667 
5374.3647017249     654568.5 
5428.1083487421       649668 
5482.3894322295       675891 
5537.2133265518       700441 
5592.5854598173       702051 
5648.5113144155       747138 
5704.9964275597       768616 
5762.0463918353       788618 
5819.6668557536       788328 
5877.8635243112 657789.66666667 
5936.6421595543 792114.66666667 
5996.0085811498 823088.33333333 
6055.9686669613 834158.66666667 
6116.5283536309 791203.33333333 
6177.6936371672 787125.33333333 
6239.4705735389       794376 
6301.8652792743 845870.66666667 
6364.883932067       859809 
6428.5327713877    845345.25 
6492.8180991016 879368.33333333 
6557.7462800926       883991 
6623.3237428935 878836.66666667 
6689.5569803225    840188.75 
6756.4525501257 853211.66666667 
6824.0170756269    882839.25 
6892.2572463832       908900 
6961.179818847    927992.75 
7030.7916170355 878655.66666667 
7101.0995332059     824329.5 
7172.1105285379 867793.33333333 
7243.8316338233    917929.75 
7316.2699501615       933379 
7389.4326496631    946438.75 
7463.3269761598     952297.5 
7537.9602459214    951754.75 
7613.3398483806       927714 
7689.4732468644    920768.25 
7766.367979333     931606.5 
7844.0316591264       937418 
7922.4719757176       939877 
8001.6966954748       941265 
8081.7136624296     944220.5 
8162.5307990539       929175 
8244.1561070444    932652.75 
8326.5976681148     909440.5 
8409.863644796     908080.2 
8493.9622812439    886081.75 
8578.9019040564       916401 
8664.6909230969       892975 
8751.3378323279    904526.25 
8838.8512106512    896635.75 
8927.2397227577       888342 
9016.5121199853    889183.75 
9106.6772411851     887551.2 
9197.744013597     879930.5 
9289.721453733     871637.6 
9382.6186682703     866073.4 
9476.444854953     858237.6 
9571.2093035025     845172.5 
9666.9213965375     832041.8 
9763.5906105029       830584 
9861.226516608     830838.4 
9959.838781774     824086.6 
10059.437169592     816003.5 
10160.031541288     808736.5 
10261.631856701     800120.5 
10364.248175268       793110 
10467.89065702     785883.5 
10572.56956359 775365.33333333 
10678.295259226     765815.5 
10785.078211819       756835 
10892.928993937       747552 
11001.858283876     737390.5 
11111.876866715     727482.5 
11222.995635382 717198.66666667 
11335.225591736     700785.5 
11448.577847653     701535.5 
11563.06362613       687634 
11678.694262391       680625 
11795.481205015       668753 
11913.436017065       663281 
12032.570377236       658794 
12152.896081008       654282 
12274.425041818       645957 
12397.169292236     638247.5 
12521.140985159       630186 
12646.35239501       622498 
12772.81591896 612946.66666667 
12900.54407815       605257 
13029.549518932     594770.5 
13159.845014121       586431 
13291.443464262     550108.5 
13424.357898905 531818.66666667 
13558.601477894       527164 
13694.187492673 527841.66666667 
13831.129367599     503694.5 
13969.440661275       495179 
14109.135067888 482586.66666667 
14250.226418567       476727 
14392.728682753       473840 
14536.65596958 460910.83333333 
14682.022529276 458474.66666667 
14828.842754569 458481.66666667 
14977.131182115 452870.33333333 
15126.902493936       457395 
15278.171518875 452960.66666667 
15430.953234064 454296.33333333 
15585.262766404       455002 
15741.115394068 452952.66666667 
15898.526548009 457464.28571429 
16057.511813489       456977 
16218.086931624     452416.5 
16380.26780094       449275 
16544.07047895       444084 
16709.511183739     428628.5 
16876.606295577       418870 
17045.372358532     399119.5 
17215.826082118     378287.5 
17387.984342939     354065.5 
17561.864186368       336385 
17737.482828232     316766.5 
17914.857656514     298274.5 
18094.006233079       285076 
18274.94629541     271191.5 
18457.695758364       253954 
18642.272715948       250323 
18828.695443107       251189 
19016.982397539       248247 
19207.152221514     240162.5 
19399.223743729     233356.5 
19593.215981166     225080.5 
19789.148140978     213310.5 
19987.039622388       207492 
20186.910018612     201454.5 
20388.779118798       197772 
20592.666909986       192526 
20798.593579086     189260.5 
21006.579514877     187368.5 
21216.645310025       185135 
21428.811763126       183419 
21643.099880757       180851 
21859.530879564       176840 
22078.12618836       174864 
22298.907450244     172022.5 
22521.896524746       168086 
22747.115489993 160378.66666667 
22974.586644893     152758.5 
23204.332511342       142386 
23436.375836456 136811.66666667 
23670.73959482       129856 
23907.446990769     122678.5 
24146.521460676 111224.33333333 
24387.986675283     101081.6 
24631.866542036 92647.866666667 
24878.185207456     86652.15 
25126.967059531 80074.666666667 
25378.236730126     78396.15 
25632.019097427 75465.266666667 
25888.339288402      75367.7 
26147.222681286 76882.566666667 
26408.694908098 75631.666666667 
26672.781857179     72027.65 
26939.509675751      67307.9 
27208.904772509      62887.9 
27480.993820234      59773.5 
27755.803758436      58172.3 
28033.361796021 54446.633333333 
28313.695413981 53115.033333333 
28596.832368121 51797.833333333 
28882.800691802 50328.166666667 
29171.62869872      46801.3 
29463.344985707      46374.6 
29757.978435564 43927.266666667 
30055.55821992 43719.533333333 
30356.113802119      42179.9 
30659.67494014        40714 
30966.271689541 40507.466666667 
31275.934406437 39187.866666667 
31588.693750501 38940.933333333 
31904.580688006     38311.86 
32223.626494886      37746.4 
32545.862759835      37204.8 
32871.321387434     36899.65 
33200.034601308      36191.1 
33532.034947321      35905.2 
33867.355296794      35190.2 
34206.028849762      34589.6 
34548.08913826      34413.2 
34893.570029642      33429.6 
35242.505729939     32655.05 
35594.930787238      31756.7 
35950.880095111     31059.85 
36310.388896062      30367.5 
36673.492785022     29781.95 
37040.227712872      28895.9 
37410.629990001     28174.85 
37784.736289901     27437.05 
38162.5836528      26465.2 
38544.209489328     25672.95 
38929.651584221        24776 
39318.948100064      23918.3 
39712.137581064      22776.4 
40109.258956875     21882.45 
40510.351546444     20730.45 
40915.455061908      20023.6 
41324.609612527      19247.4 
41737.855708653      18566.5 
42155.234265739     17917.35 
42576.786608396      17136.4 
43002.55447448     16088.75 
43432.580019225     15146.15 
43866.905819417 14206.766666667 
44305.574877612      13407.5 
44748.630626388     12888.45 
45196.116932652      12373.2 
45648.078101978 11882.966666667 
46104.558882998      11431.4 
46565.604471828     11114.45 
47031.260516546 10768.733333333 
47501.573121712      10270.1 
47976.588852929     9962.835 
48456.354741458      9491.27 
48940.918288873      9206.36 
49430.327471761 8806.4433333333 
49924.630746479      8362.11 
50423.877053944      8060.62 
50928.115824483      7772.69 
51437.396982728 7459.0333333333 
51951.770952555      7229.33 
52471.288662081      6906.29 
52996.001548702      6672.05 
53525.961564189      6444.86 
54061.221179831 6130.7866666667 
54601.833391629 5987.4333333333 
55147.851725545      5712.89 
55699.330242801 5608.4066666667 
56256.323545229      5387.23 
56818.886780681      5139.22 
57387.075648488 5054.0533333333 
57960.946404973 4860.2466666667 
58540.555869022      4721.22 
59125.961427713 4584.6766666667 
59717.22104199 4467.8066666667 
60314.39325241 4328.9433333333 
60917.537184934      4220.31 
61526.712556783      4103.28 
62141.979682351 3968.9333333333 
62763.399479174 3842.5133333333 
63391.033473966 3659.1866666667 
64024.943808706 3339.4128571429 
64665.193246793      3100.15 
65311.845179261     2898.475 
65964.963631053     2714.515 
66624.613267364       2607.4 
67290.859400038      2530.15 
67963.767994038      2424.94 
68643.405673978      2348.61 
69329.839730718     2297.795 
70023.138128025     2192.405 
70723.369509305     2107.155 
71430.603204399      2086.13 
72144.909236443      1981.32 
72866.358328807     1926.965 
73595.021912095     1851.135 
74330.972131216      1794.17 
75074.281852528     1713.575 
75825.024671053      1637.28 
76583.274917764     1611.755 
77349.107666942     1537.825 
78122.598743611     1483.155 
78903.824731047     1416.835 
79692.862978358      1364.77 
80489.791608141     1303.435 
81294.689524223      1270.67 
82107.636419465      1222.19 
82928.712783659      1171.01 
83757.999911496     1133.745 
84595.579910611 1090.5233333333 
85441.535709717       1049.5 
86295.951066814     1025.895 
87158.910577482     978.3605 
88030.499683257     954.2665 
88910.80468009      931.412 
89799.912726891       897.58 
90697.91185416     867.5885 
91604.890972701      841.903 
92520.939882428 808.18466666667 
93446.149281253      776.858 
94380.610774065     752.3235 
95324.416881806        728.3 
96277.661050624     695.4615 
97240.43766113 675.70833333333 
98212.842037741     639.9875 
99194.970458119     625.7775 
100186.9201627      610.084 
199060.83304441      43.2693 
399467.9878358      2.84573 
594753.39981818     0.568538 
793700.71765891     0.180295 
997811.18987739    0.0737789 
1193529.3359837     0.035499 
1399507.0114645    0.0191079 
