#  WAVELENGTH	        FLUX	
#  (ANGSTROM)	(ERG/CM2/S/A)	
############	############	
861.37915556043  3.23932E-25 
869.99294711603  6.98474E-25 
878.69287658719  1.47883E-24 
887.47980535306  3.07611E-24 
896.3546034066  6.28464E-24 
914.37133093507  5.44108E-18 
923.51504424442  1.56055E-17 
932.75019468686  2.03119E-17 
942.07769663373  4.47971E-17 
951.49847360007  9.17221E-17 
961.01345833607  1.27463E-16 
970.62359291943  1.01464E-16 
980.32982884862   4.2048E-16 
990.13312713711   6.7745E-16 
1000.0344584085  8.73322E-16 
1010.0348029926  8.28626E-16 
1020.1351510225  2.74297E-15 
1030.3365025327  5.18659E-15 
1040.639867558  8.50005E-15 
1051.0462662336  1.07452E-14 
1061.556728896  2.41927E-14 
1072.1722961849  3.39266E-14 
1082.8940191468   5.7174E-14 
1093.7229593382  7.37013E-14 
1104.6601889316  1.25623E-13 
1115.7067908209  2.83855E-13 
1126.8638587291  4.74428E-13 
1138.1324973164   7.0474E-13 
1149.5138222896  9.41046E-13 
1161.0089605125  1.15848E-12 
1172.6190501176  1.48509E-12 
1184.3452406188  1.80013E-12 
1196.188693025  1.79294E-12 
1208.1505799552  1.37447E-13 
1220.2320857548  3.65753E-12 
1232.4344066123  6.59292E-12 
1244.7587506785  1.81947E-11 
1257.2063381852  3.90732E-11 
1269.7784015671  6.02211E-11 
1282.4761855828  9.43196E-11 
1295.3009474386  1.50856E-10 
1308.253956913  2.21521E-10 
1321.3364964821  2.85527E-10 
1334.5498614469 4.379325E-10 
1347.8953600614  7.28909E-10 
1361.374313662   9.1017E-10 
1374.9880567986  1.354455E-9 
1388.7379373666   1.86119E-9 
1402.6253167403   3.31057E-9 
1416.6515699077   4.76463E-9 
1430.8180856068 7.4995035294118E-9 
1445.1262664628 9.9831269230769E-9 
1459.5775291275   1.58939E-8 
1474.1733044187  2.063095E-8 
1488.9150374629   3.51983E-8 
1503.8041878376 4.7481281818182E-8 
1518.8422297159   8.75109E-8 
1534.0306520131  9.526355E-7 
1549.3709585332   1.91245E-6 
1564.8646681186 1.2756005E-5 
1580.5133147997   2.07382E-5 
1596.3184479477   1.64481E-5 
1612.2816324272  1.241495E-5 
1628.4044487515   4.34408E-5 
1644.688493239  6.486745E-5 
1661.1353781714 0.00014277573636364 
1677.7467319531   0.00149844 
1694.5241992726  0.010363815 
1711.4694412654   0.03490305 
1728.584135678   0.08800425 
1745.8699770348     0.124956 
1763.3286768051     0.159096 
1780.9619635732     0.320068 
1798.7715832089    0.4690885 
1816.759299041     0.781745 
1834.9268920314     0.603766 
1853.2761609517     1.020178 
1871.8089225613     1.670805 
1890.5270117869      2.77475 
1909.4322819047     3.650425 
1928.5266047238      3.74394 
1947.811870771 8.8963172727273 
1967.2899894787 12.290335294118 
1986.9628893735 14.610719047619 
2006.8325182673      15.2378 
2026.9008434499       21.335 
2047.1698518844      24.3156 
2067.6415504033    27.967245 
2088.3179659073       43.222 
2109.2011455664     32.33315 
2130.293157022     54.51665 
2151.5960885923     62.11775 
2173.1120494782     63.64365 
2194.843169973 97.461966666667 
2216.7916016727      125.902 
2238.9595176894     185.4425 
2261.3491128663     161.9255 
2283.962603995      226.231 
2306.8022300349     326.2665 
2329.8702523353     292.0225 
2353.1689548586 252.04966666667 
2376.7006444072      275.211 
2400.4676508513     430.5845 
2424.4723273598 1104.5346666667 
2448.7170506334      1289.59 
2473.2042211397 655.77933333333 
2497.9362633511 799.70669565217 
2522.9156259846 1387.1657777778 
2548.1447822445     2645.725 
2573.6262300669 2321.1066666667 
2599.3624923676 2081.9666666667 
2625.3561172913      5688.76 
2651.6096784642 8354.2366666667 
2678.1257752488     8872.715 
2704.9070330013      7428.61 
2731.9561033313 6350.4333333333 
2759.2756643647 7983.6233333333 
2786.8684210083     1708.385 
2814.7371052184 10978.413333333 
2842.8844762706 7590.4666666667 
2871.3133210333 20143.733333333 
2900.0264542436      30671.5 
2929.026718786     30832.45 
2958.3169859739      33421.5 
2987.9001558336      35414.9 
3017.779157392      41128.5 
3047.9569489659      48040.1 
3078.4365184556      56335.2 
3109.2208836401     63953.95 
3140.3130924765        70544 
3171.7162234013      71939.4 
3203.4333856353     73745.65 
3235.4677194916      98026.4 
3267.8223966866       129022 
3300.5006206534       126151 
3333.50562686       118305 
3366.8406831286     109793.5 
3400.5090899598     154463.5 
3434.5141808594       172509 
3468.859322668     188825.5 
3503.5479158947       207472 
3538.5833950537       203894 
3573.9692290042       186917 
3609.7089212942     248006.2 
3645.8060105072 296447.66666667 
3682.2640706123     338861.5 
3719.0867113184       304140 
3756.2775784316       360871 
3793.8403542159     300529.5 
3831.778757758       251174 
3870.0965453356       349741 
3908.797510789       244193 
3947.8854858969       215160 
3987.3643407558       561018 
4027.2379841634       655600 
4067.510364005     714366.5 
4108.1854676451       774785 
4149.2673223215 746532.33333333 
4190.7599955447     799261.5 
4232.6675955002       808311 
4274.9942714552     648521.5 
4317.7442141697     903589.5 
4360.9216563114     920491.5 
4404.5308728746    1052349.5 
4448.5761816033 1210793.3333333 
4493.0619434193      1353405 
4537.9925628535      1386485 
4583.3724884821      1437835 
4629.2062133669 1520743.3333333 
4675.4982755006      1552545 
4722.2532582556      1638450 
4769.4757908381 1685856.6666667 
4817.1705487465      1684055 
4865.342254234      1690000 
4913.9956767763      1769635 
4963.1356335441 1749246.6666667 
5012.7669898795      1803620 
5062.8946597783 1844113.3333333 
5113.5236063761      1781255 
5164.6588424398 1802873.3333333 
5216.3054308642      1901150 
5268.4684851729 1931593.3333333 
5321.1531700246      2004360 
5374.3647017249      2015835 
5428.1083487421 2068623.3333333 
5482.3894322295 2095246.6666667 
5537.2133265518 2135926.6666667 
5592.5854598173      2171525 
5648.5113144155 2178876.6666667 
5704.9964275597 2209126.6666667 
5762.0463918353      2241290 
5819.6668557536 2278333.3333333 
5877.8635243112      2242160 
5936.6421595543      2292660 
5996.0085811498 2294536.6666667 
6055.9686669613 2289666.6666667 
6116.5283536309      2222180 
6177.6936371672 2270293.3333333 
6239.4705735389      2238660 
6301.8652792743 2260283.3333333 
6364.883932067      2271350 
6428.5327713877    2259137.5 
6492.8180991016 2286156.6666667 
6557.7462800926      2236300 
6623.3237428935 2282476.6666667 
6689.5569803225    2290397.5 
6756.4525501257      2278950 
6824.0170756269    2275592.5 
6892.2572463832      2255140 
6961.179818847    2227427.5 
7030.7916170355 2225293.3333333 
7101.0995332059    2192417.5 
7172.1105285379 2165506.6666667 
7243.8316338233      2171250 
7316.2699501615 2171666.6666667 
7389.4326496631      2143675 
7463.3269761598    2149897.5 
7537.9602459214      2147190 
7613.3398483806      2126780 
7689.4732468644      2108160 
7766.367979333      2110590 
7844.0316591264    2057112.5 
7922.4719757176    2011112.5 
8001.6966954748    2008762.5 
8081.7136624296    1971747.5 
8162.5307990539    1954952.5 
8244.1561070444      1955640 
8326.5976681148    1915957.5 
8409.863644796      1904050 
8493.9622812439    1749142.5 
8578.9019040564    1880437.5 
8664.6909230969      1795802 
8751.3378323279      1853635 
8838.8512106512      1842995 
8927.2397227577      1812906 
9016.5121199853      1796155 
9106.6772411851      1729858 
9197.744013597    1669067.5 
9289.721453733      1682908 
9382.6186682703      1642058 
9476.444854953      1643392 
9571.2093035025    1628467.5 
9666.9213965375      1610338 
9763.5906105029      1602874 
9861.226516608      1592912 
9959.838781774      1579332 
10059.437169592      1555150 
10160.031541288      1531835 
10261.631856701      1514345 
10364.248175268      1495750 
10467.89065702      1475860 
10572.56956359 1444556.6666667 
10678.295259226      1420510 
10785.078211819      1389735 
10892.928993937      1326745 
11001.858283876      1292815 
11111.876866715      1295900 
11222.995635382 1288576.6666667 
11335.225591736      1266665 
11448.577847653      1269375 
11563.06362613      1242430 
11678.694262391      1234095 
11795.481205015      1210575 
11913.436017065      1197350 
12032.570377236      1181425 
12152.896081008      1175085 
12274.425041818 1155886.6666667 
12397.169292236      1140985 
12521.140985159 1123506.6666667 
12646.35239501      1108495 
12772.81591896 1087453.3333333 
12900.54407815      1073630 
13029.549518932      1059205 
13159.845014121 1042223.3333333 
13291.443464262      1030905 
13424.357898905 1021043.3333333 
13558.601477894      1000348 
13694.187492673       988101 
13831.129367599       975297 
13969.440661275 959555.66666667 
14109.135067888 928204.66666667 
14250.226418567       918773 
14392.728682753       907073 
14536.65596958     893875.5 
14682.022529276 881753.66666667 
14828.842754569       877144 
14977.131182115 861741.33333333 
15126.902493936 858681.33333333 
15278.171518875 849781.66666667 
15430.953234064       840419 
15585.262766404 830973.66666667 
15741.115394068       807258 
15898.526548009 808804.28571429 
16057.511813489       787846 
16218.086931624       781902 
16380.26780094       749013 
16544.07047895       743454 
16709.511183739       708399 
16876.606295577       698525 
17045.372358532       673340 
17215.826082118       642413 
17387.984342939       623711 
17561.864186368       606402 
17737.482828232     589874.5 
17914.857656514     568859.5 
18094.006233079     543195.5 
18274.94629541     526134.5 
18457.695758364       512144 
18642.272715948       491610 
18828.695443107     476419.5 
19016.982397539       463130 
19207.152221514     445791.5 
19399.223743729       426287 
19593.215981166       413484 
19789.148140978       399307 
19987.039622388     387974.5 
20186.910018612       372780 
20388.779118798       361797 
20592.666909986     348351.5 
20798.593579086       336821 
21006.579514877     326436.5 
21216.645310025       315617 
21428.811763126     305872.5 
21643.099880757       291467 
21859.530879564       281093 
22078.12618836     272528.5 
22298.907450244     263987.5 
22521.896524746       255139 
22747.115489993       237517 
22974.586644893     226346.5 
23204.332511342       206080 
23436.375836456 199905.33333333 
23670.73959482     189435.5 
23907.446990769     188861.5 
24146.521460676       178150 
24387.986675283     170064.5 
24631.866542036 168044.33333333 
24878.185207456       165498 
25126.967059531 157909.33333333 
25378.236730126     154168.5 
25632.019097427 150195.66666667 
25888.339288402       146598 
26147.222681286 141850.66666667 
26408.694908098 137062.66666667 
26672.781857179     134195.5 
26939.509675751 130144.66666667 
27208.904772509       125897 
27480.993820234       121398 
27755.803758436     117980.5 
28033.361796021 114314.33333333 
28313.695413981 110447.66666667 
28596.832368121 106183.33333333 
28882.800691802 102592.33333333 
29171.62869872      98636.9 
29463.344985707      95159.7 
29757.978435564      91729.1 
30055.55821992 88380.833333333 
30356.113802119 85189.933333333 
30659.67494014 82183.533333333 
30966.271689541      79314.5 
31275.934406437      76435.5 
31588.693750501 73882.633333333 
31904.580688006     71509.66 
32223.626494886      68494.3 
32545.862759835      66270.9 
32871.321387434      63842.6 
33200.034601308      61073.7 
33532.034947321      59198.5 
33867.355296794     57036.75 
34206.028849762     54748.25 
34548.08913826      53066.9 
34893.570029642     51362.85 
35242.505729939      49169.3 
35594.930787238      47049.6 
35950.880095111      45262.5 
36310.388896062      43771.2 
36673.492785022     42415.85 
37040.227712872      40692.8 
37410.629990001     39039.75 
37784.736289901      37617.5 
38162.5836528      36197.7 
38544.209489328     34793.35 
38929.651584221     33463.85 
39318.948100064     32227.85 
39712.137581064      30931.7 
40109.258956875     29774.55 
40510.351546444      28741.7 
40915.455061908     27730.25 
41324.609612527     26690.25 
41737.855708653     25729.45 
42155.234265739     24859.55 
42576.786608396      23489.2 
43002.55447448      21870.3 
43432.580019225     20429.25 
43866.905819417      19069.4 
44305.574877612     17587.55 
44748.630626388     17095.85 
45196.116932652     16053.15 
45648.078101978 15385.966666667 
46104.558882998     14767.95 
46565.604471828        14420 
47031.260516546      13952.6 
47501.573121712      13524.4 
47976.588852929      13149.6 
48456.354741458 12746.266666667 
48940.918288873      12278.4 
49430.327471761 11902.666666667 
49924.630746479     11489.05 
50423.877053944 11092.766666667 
50928.115824483     10719.85 
51437.396982728 10439.333333333 
51951.770952555    10043.885 
52471.288662081 9816.0433333333 
52996.001548702 9398.6233333333 
53525.961564189      9157.01 
54061.221179831      8864.16 
54601.833391629 8531.9833333333 
55147.851725545      8327.02 
55699.330242801 8098.7033333333 
56256.323545229 7796.7033333333 
56818.886780681 7521.9333333333 
57387.075648488 7283.0466666667 
57960.946404973 7023.9966666667 
58540.555869022 6769.5233333333 
59125.961427713      6544.02 
59717.22104199      6331.27 
60314.39325241 6090.7733333333 
60917.537184934      5880.66 
61526.712556783 5699.6833333333 
62141.979682351 5492.0266666667 
62763.399479174 5303.7266666667 
63391.033473966 5124.9633333333 
64024.943808706 4914.5385714286 
64665.193246793      4757.41 
65311.845179261      4597.33 
65964.963631053     4391.255 
66624.613267364      4247.52 
67290.859400038     4102.825 
67963.767994038     3924.325 
68643.405673978       3793.9 
69329.839730718     3669.775 
70023.138128025      3511.59 
70723.369509305     3361.815 
71430.603204399      3253.53 
72144.909236443     3150.175 
72866.358328807      3018.58 
73595.021912095      2893.42 
74330.972131216     2771.455 
75074.281852528      2660.87 
75825.024671053      2577.68 
76583.274917764      2496.29 
77349.107666942     2390.875 
78122.598743611      2292.89 
78903.824731047      2201.45 
79692.862978358      2117.43 
80489.791608141     2038.715 
81294.689524223     1964.735 
82107.636419465     1893.005 
82928.712783659     1822.105 
83757.999911496     1754.275 
84595.579910611 1674.0533333333 
85441.535709717      1598.54 
86295.951066814     1540.705 
87158.910577482      1487.02 
88030.499683257     1435.005 
88910.80468009     1386.255 
89799.912726891      1327.97 
90697.91185416      1271.99 
91604.890972701      1230.11 
92520.939882428      1179.52 
93446.149281253     1131.355 
94380.610774065      1094.69 
95324.416881806 1050.8766666667 
96277.661050624     1008.735 
97240.43766113 968.95333333333 
98212.842037741      931.196 
99194.970458119      902.053 
100186.9201627      881.411 
199060.83304441      57.0463 
399467.9878358      3.58624 
594753.39981818     0.707291 
793700.71765891     0.223071 
997811.18987739    0.0910029 
1193529.3359837    0.0436903 
1399507.0114645    0.0234764 
