#  WAVELENGTH	        FLUX	
#  (ANGSTROM)	(ERG/CM2/S/A)	
############	############	
384.7362270329  3.98193E-24 
392.46942519626  2.67242E-23 
404.36164124913  1.62447E-22 
412.48931023824  7.62249E-22 
420.78034537403  2.83938E-21 
429.23803031605  1.00436E-20 
437.8657147254  5.27008E-20 
446.66681559138  2.20647E-19 
455.64481858477  7.56595E-19 
469.4513122327  2.80561E-18 
478.88728360858  9.80987E-18 
488.51291800911  3.24951E-17 
498.3320276611  1.02162E-16 
503.31534793771  2.63292E-16 
508.34850141708  5.65963E-16 
518.56630629557  1.30472E-15 
528.98948905211  3.59214E-15 
539.62217778206  9.34771E-15 
545.01839955988   2.3716E-14 
555.97326939103  5.77038E-14 
567.14833210579  1.35711E-13 
578.54801358112  3.05638E-13 
584.33349371693  6.82768E-13 
596.07859694064  1.46527E-12 
608.05977673914  3.06001E-12 
614.14037450653  6.22477E-12 
626.48459603412  1.23536E-11 
639.0769364144  2.39568E-11 
645.46770577855  4.54332E-11 
651.92238283633  7.46432E-11 
658.44160666469  1.14001E-10 
671.67628295866  2.05289E-10 
678.39304578824  3.62683E-10 
692.02874600859  6.29264E-10 
698.94903346867    1.0723E-9 
712.99790904139   1.89263E-9 
720.12788813181   3.11832E-9 
734.60245868325   4.82564E-9 
741.94848327009    7.7318E-9 
749.36796810279   1.22161E-8 
764.43026426165   1.90436E-8 
772.07456690427   2.93061E-8 
779.79531257331    4.4545E-8 
787.59326569905   6.67896E-8 
803.4238903396   9.92832E-8 
811.45812924299   1.45848E-7 
819.57271053542   2.11954E-7 
827.76843764078   3.04934E-7 
844.40658323736   4.34396E-7 
852.85064906973   6.12953E-7 
861.37915556043   8.57158E-7 
869.99294711603   1.18762E-6 
878.69287658719   1.63289E-6 
887.47980535306   2.22602E-6 
896.3546034066   3.00914E-6 
914.37133093507   0.00743764 
923.51504424442    0.0257443 
932.75019468686     0.034153 
942.07769663373    0.0470584 
951.49847360007    0.0662358 
961.01345833607     0.087153 
970.62359291943     0.106382 
980.32982884862     0.147128 
990.13312713711     0.184684 
1000.0344584085     0.248651 
1010.0348029926     0.309374 
1020.1351510225     0.362485 
1030.3365025327     0.506772 
1040.639867558     0.645222 
1051.0462662336     0.809664 
1061.556728896     0.991429 
1072.1722961849       1.2455 
1082.8940191468      1.55006 
1093.7229593382      1.87607 
1104.6601889316     11.06631 
1115.7067908209      23.3273 
1126.8638587291      31.9201 
1138.1324973164      38.2613 
1149.5138222896      39.0561 
1161.0089605125      46.6186 
1172.6190501176      46.7835 
1184.3452406188     41.12515 
1196.188693025      13.9492 
1208.1505799552      4.75741 
1220.2320857548      16.9453 
1232.4344066123      41.5677 
1244.7587506785    125.80965 
1257.2063381852      223.309 
1269.7784015671      339.878 
1282.4761855828     609.8515 
1295.3009474386      760.684 
1308.253956913      1081.88 
1321.3364964821      1373.34 
1334.5498614469     1846.045 
1347.8953600614      2273.28 
1361.374313662      2695.03 
1374.9880567986      3289.74 
1388.7379373666      4099.45 
1402.6253167403      4910.03 
1416.6515699077      5806.17 
1430.8180856068 6553.1476470588 
1445.1262664628 8138.7215384615 
1459.5775291275      8892.59 
1474.1733044187     10613.85 
1488.9150374629      12697.1 
1503.8041878376 14718.686363636 
1518.8422297159      17232.6 
1534.0306520131      26350.9 
1549.3709585332      30717.6 
1564.8646681186      31741.3 
1580.5133147997      40933.2 
1596.3184479477      44955.7 
1612.2816324272     57370.65 
1628.4044487515       111523 
1644.688493239     212659.5 
1661.1353781714 509832.22727273 
1677.7467319531      1266850 
1694.5241992726      1577525 
1711.4694412654      2402255 
1728.584135678      2949035 
1745.8699770348      3503430 
1763.3286768051      3031025 
1780.9619635732      3893390 
1798.7715832089      3930370 
1816.759299041      3579280 
1834.9268920314      3519395 
1853.2761609517      3894170 
1871.8089225613      4184385 
1890.5270117869      4464315 
1909.4322819047      4751425 
1928.5266047238      4457990 
1947.811870771 5674269.0909091 
1967.2899894787 5719944.7058824 
1986.9628893735 5392024.7619048 
2006.8325182673      5006955 
2026.9008434499      5867285 
2047.1698518844      5726665 
2067.6415504033    6797172.5 
2088.3179659073      6260160 
2109.2011455664      6386925 
2130.293157022      5727100 
2151.5960885923      6071110 
2173.1120494782      6037025 
2194.843169973 6464783.3333333 
2216.7916016727      6478080 
2238.9595176894      6078515 
2261.3491128663      6146230 
2283.962603995 6524013.3333333 
2306.8022300349      6428870 
2329.8702523353      4831410 
2353.1689548586      5502300 
2376.7006444072      4194070 
2400.4676508513      4707475 
2424.4723273598      6472020 
2448.7170506334      6709775 
2473.2042211397      6155900 
2497.9362633511 6778700.4347826 
2522.9156259846 5410772.5925926 
2548.1447822445      6073330 
2573.6262300669 6596893.3333333 
2599.3624923676      6066090 
2625.3561172913      8193075 
2651.6096784642 8619443.3333333 
2678.1257752488      8311460 
2704.9070330013      7815080 
2731.9561033313 7098626.6666667 
2759.2756643647      7886340 
2786.8684210083      4045610 
2814.7371052184      9141990 
2842.8844762706      8568880 
2871.3133210333 8918946.6666667 
2900.0264542436     10072600 
2929.026718786      9668415 
2958.3169859739     10010100 
2987.9001558336     10206750 
3017.779157392     10316400 
3047.9569489659     10446900 
3078.4365184556     10738000 
3109.2208836401     10472400 
3140.3130924765     10889050 
3171.7162234013     10258900 
3203.4333856353     10432300 
3235.4677194916     10706800 
3267.8223966866     11074450 
3300.5006206534     11259500 
3333.50562686     11038600 
3366.8406831286     11000850 
3400.5090899598     11314100 
3434.5141808594     11336900 
3468.859322668     11221600 
3503.5479158947     11495450 
3538.5833950537     11589550 
3573.9692290042     11328100 
3609.7089212942     11511020 
3645.8060105072 11801666.666667 
3682.2640706123     12932600 
3719.0867113184     18557400 
3756.2775784316     24127150 
3793.8403542159     26546650 
3831.778757758     32100750 
3870.0965453356     22807100 
3908.797510789     30299800 
3947.8854858969     26667750 
3987.3643407558     33504650 
4027.2379841634     33930350 
4067.510364005     31205250 
4108.1854676451     28082950 
4149.2673223215 32535966.666667 
4190.7599955447     31805300 
4232.6675955002     31347200 
4274.9942714552     30058600 
4317.7442141697     24326250 
4360.9216563114     29925400 
4404.5308728746     29456950 
4448.5761816033     29250100 
4493.0619434193     28938200 
4537.9925628535     28384350 
4583.3724884821     28215600 
4629.2062133669     27829100 
4675.4982755006     26934600 
4722.2532582556     27078250 
4769.4757908381 26454633.333333 
4817.1705487465     23912650 
4865.342254234     22706300 
4913.9956767763     24680250 
4963.1356335441     24281800 
5012.7669898795     23931750 
5062.8946597783 23628466.666667 
5113.5236063761     22951200 
5164.6588424398 22177333.333333 
5216.3054308642     22098850 
5268.4684851729 21602233.333333 
5321.1531700246 21217066.666667 
5374.3647017249     20818850 
5428.1083487421     20538600 
5482.3894322295 20191433.333333 
5537.2133265518     19755300 
5592.5854598173     19430850 
5648.5113144155 19083266.666667 
5704.9964275597     18728900 
5762.0463918353 18339833.333333 
5819.6668557536 17942166.666667 
5877.8635243112 17491433.333333 
5936.6421595543     17185800 
5996.0085811498 16803933.333333 
6055.9686669613     16463100 
6116.5283536309     15991600 
6177.6936371672 15768833.333333 
6239.4705735389 15400633.333333 
6301.8652792743     15097500 
6364.883932067 14780066.666667 
6428.5327713877     14376600 
6492.8180991016     13612500 
6557.7462800926 12534333.333333 
6623.3237428935 13532066.666667 
6689.5569803225     13236625 
6756.4525501257 12934333.333333 
6824.0170756269     12630150 
6892.2572463832     12341700 
6961.179818847     12050475 
7030.7916170355 11782166.666667 
7101.0995332059     11484100 
7172.1105285379     11229200 
7243.8316338233     10983525 
7316.2699501615 10743666.666667 
7389.4326496631     10485125 
7463.3269761598     10221225 
7537.9602459214    9985512.5 
7613.3398483806 9757106.6666667 
7689.4732468644      9542230 
7766.367979333    9288027.5 
7844.0316591264    9072192.5 
7922.4719757176      8848645 
8001.6966954748      8641855 
8081.7136624296      8436960 
8162.5307990539    8213227.5 
8244.1561070444    8041467.5 
8326.5976681148    7811287.5 
8409.863644796      7600778 
8493.9622812439    7313467.5 
8578.9019040564    7419412.5 
8664.6909230969      7119278 
8751.3378323279      7440780 
8838.8512106512      6950305 
8927.2397227577      6974498 
9016.5121199853      6824175 
9106.6772411851      6851450 
9197.744013597    6226967.5 
9289.721453733      6533970 
9382.6186682703      6328666 
9476.444854953      5855624 
9571.2093035025      5985680 
9666.9213965375      5865188 
9763.5906105029      5718896 
9861.226516608      5555152 
9959.838781774 5315001.3333333 
10059.437169592      5088365 
10160.031541288      5142505 
10261.631856701      5006595 
10364.248175268      4878865 
10467.89065702      4735255 
10572.56956359 4572673.3333333 
10678.295259226      4430065 
10785.078211819      4306905 
10892.928993937      3968100 
11001.858283876      4118550 
11111.876866715      4018990 
11222.995635382 3882923.3333333 
11335.225591736      3767685 
11448.577847653      3687475 
11563.06362613 3558036.6666667 
11678.694262391      3449365 
11795.481205015      3361140 
11913.436017065 3276473.3333333 
12032.570377236      3179660 
12152.896081008      3113450 
12274.425041818 3020656.6666667 
12397.169292236      2936445 
12521.140985159 2846173.3333333 
12646.35239501      2767320 
12772.81591896 2569043.3333333 
12900.54407815 2600176.6666667 
13029.549518932      2529330 
13159.845014121 2458286.6666667 
13291.443464262      2391830 
13424.357898905 2326016.6666667 
13558.601477894      2249430 
13694.187492673      2171770 
13831.129367599      2118160 
13969.440661275      2061790 
14109.135067888      1995320 
14250.226418567 1932263.3333333 
14392.728682753 1860996.6666667 
14536.65596958 1811855.6666667 
14682.022529276 1754863.3333333 
14828.842754569 1701136.6666667 
14977.131182115 1644713.3333333 
15126.902493936 1595636.6666667 
15278.171518875 1537656.6666667 
15430.953234064      1492430 
15585.262766404      1447350 
15741.115394068      1401820 
15898.526548009 1395397.1428571 
16057.511813489      1291170 
16218.086931624      1321275 
16380.26780094      1210300 
16544.07047895      1254500 
16709.511183739      1147815 
16876.606295577      1163710 
17045.372358532      1128220 
17215.826082118      1035236 
17387.984342939      1029750 
17561.864186368      1003640 
17737.482828232     974965.5 
17914.857656514       935480 
18094.006233079       860025 
18274.94629541       864107 
18457.695758364       838502 
18642.272715948       780769 
18828.695443107       778768 
19016.982397539       754708 
19207.152221514       724020 
19399.223743729     670959.5 
19593.215981166       673037 
19789.148140978     649137.5 
19987.039622388       625955 
20186.910018612     603224.5 
20388.779118798       582212 
20592.666909986     561400.5 
20798.593579086     541958.5 
21006.579514877     522941.5 
21216.645310025     504820.5 
21428.811763126     487264.5 
21643.099880757 455556.66666667 
21859.530879564       448332 
22078.12618836       433419 
22298.907450244     419574.5 
22521.896524746     405533.5 
22747.115489993 389685.33333333 
22974.586644893     374493.5 
23204.332511342     362786.5 
23436.375836456 348766.66666667 
23670.73959482     335217.5 
23907.446990769     324811.5 
24146.521460676 312372.66666667 
24387.986675283     300501.5 
24631.866542036       289506 
24878.185207456     277785.5 
25126.967059531       267994 
25378.236730126     260744.5 
25632.019097427 248538.33333333 
25888.339288402       242262 
26147.222681286 225362.66666667 
26408.694908098 224721.33333333 
26672.781857179       210948 
26939.509675751       210364 
27208.904772509 201660.33333333 
27480.993820234       189209 
27755.803758436     187214.5 
28033.361796021 181023.33333333 
28313.695413981       173865 
28596.832368121 163240.33333333 
28882.800691802       160676 
29171.62869872 154573.66666667 
29463.344985707 148750.33333333 
29757.978435564 143172.66666667 
30055.55821992 135784.33333333 
30356.113802119       131779 
30659.67494014 127929.66666667 
30966.271689541       123259 
31275.934406437 118888.33333333 
31588.693750501 114707.66666667 
31904.580688006     110815.2 
32223.626494886     106213.5 
32545.862759835       102525 
32871.321387434      97057.2 
33200.034601308      94407.5 
33532.034947321      91209.5 
33867.355296794     88218.85 
34206.028849762     84431.15 
34548.08913826      81688.6 
34893.570029642      79060.7 
35242.505729939      75696.7 
35594.930787238      72529.7 
35950.880095111     69513.75 
36310.388896062      67202.1 
36673.492785022     65191.55 
37040.227712872     62356.35 
37410.629990001     59426.35 
37784.736289901     57671.65 
38162.5836528     55530.25 
38544.209489328     53490.05 
38929.651584221        51020 
39318.948100064     49528.25 
39712.137581064     47428.65 
40109.258956875      44904.9 
40510.351546444      44127.2 
40915.455061908      42534.4 
41324.609612527     40461.05 
41737.855708653     39463.15 
42155.234265739      38081.9 
42576.786608396     36730.55 
43002.55447448     35434.85 
43432.580019225      33802.5 
43866.905819417 32682.166666667 
44305.574877612     31344.35 
44748.630626388      30268.7 
45196.116932652      29253.3 
45648.078101978 28041.266666667 
46104.558882998      26531.4 
46565.604471828      25643.5 
47031.260516546 24994.433333333 
47501.573121712      24010.1 
47976.588852929     23245.85 
48456.354741458 22328.366666667 
48940.918288873     21458.45 
49430.327471761      20639.6 
49924.630746479     19841.45 
50423.877053944      19096.3 
50928.115824483     18145.55 
51437.396982728 17689.233333333 
51951.770952555      17071.8 
52471.288662081 16422.433333333 
52996.001548702 15746.233333333 
53525.961564189     15123.85 
54061.221179831 14649.366666667 
54601.833391629 14030.533333333 
55147.851725545     13485.05 
55699.330242801 13084.066666667 
56256.323545229 12553.833333333 
56818.886780681      11990.2 
57387.075648488 11567.833333333 
57960.946404973 11114.733333333 
58540.555869022 10592.666666667 
59125.961427713 10193.366666667 
59717.22104199 9879.2533333333 
60314.39325241 9504.1433333333 
60917.537184934      9146.05 
61526.712556783 8806.0033333333 
62141.979682351 8477.3833333333 
62763.399479174 8108.3933333333 
63391.033473966      7874.13 
64024.943808706 7532.7514285714 
64665.193246793      7276.47 
65311.845179261      7021.11 
65964.963631053       6696.3 
66624.613267364      6464.84 
67290.859400038     6206.755 
67963.767994038     5961.525 
68643.405673978      5762.52 
69329.839730718      5568.63 
70023.138128025     5327.655 
70723.369509305     5094.435 
71430.603204399      4932.49 
72144.909236443      4769.91 
72866.358328807      4573.95 
73595.021912095     4383.355 
74330.972131216      4128.92 
75074.281852528     4029.945 
75825.024671053      3908.39 
76583.274917764     3790.455 
77349.107666942     3631.325 
78122.598743611     3496.405 
78903.824731047     3360.045 
79692.862978358      3230.28 
80489.791608141      3106.69 
81294.689524223     2978.875 
82107.636419465     2876.795 
82928.712783659     2769.705 
83757.999911496      2667.57 
84595.579910611 2546.9566666667 
85441.535709717     2432.435 
86295.951066814      2335.45 
87158.910577482      2249.73 
88030.499683257      2183.21 
88910.80468009      2107.39 
89799.912726891 2017.2266666667 
90697.91185416      1931.56 
91604.890972701       1866.4 
92520.939882428 1788.5266666667 
93446.149281253     1706.395 
94380.610774065     1658.565 
95324.416881806 1591.5033333333 
96277.661050624     1528.115 
97240.43766113 1467.5933333333 
98212.842037741     1408.825 
99194.970458119      1365.93 
100186.9201627      1333.97 
199060.83304441      86.5483 
399467.9878358      5.44468 
594753.39981818      1.07149 
793700.71765891      0.33732 
997811.18987739     0.137476 
1193529.3359837    0.0659933 
1399507.0114645    0.0354702 
