#  WAVELENGTH	        FLUX	
#  (ANGSTROM)	(ERG/CM2/S/A)	
############	############	
772.07456690427  3.12186E-25 
779.79531257331  7.75623E-25 
787.59326569905   1.8794E-24 
803.4238903396  4.45381E-24 
811.45812924299  1.03169E-23 
819.57271053542  2.33862E-23 
827.76843764078   5.1925E-23 
844.40658323736  1.12546E-22 
852.85064906973  2.37038E-22 
861.37915556043  4.90407E-22 
869.99294711603  9.97398E-22 
878.69287658719  1.98465E-21 
887.47980535306  3.92743E-21 
896.3546034066  7.55369E-21 
914.37133093507  4.02283E-18 
923.51504424442  1.57781E-17 
932.75019468686  3.15657E-17 
942.07769663373  6.47765E-17 
951.49847360007  1.23735E-16 
961.01345833607  2.24317E-16 
970.62359291943  4.30658E-16 
980.32982884862  9.03748E-16 
990.13312713711  1.57195E-15 
1000.0344584085  2.89527E-15 
1010.0348029926  5.14069E-15 
1020.1351510225   8.7328E-15 
1030.3365025327  1.39948E-14 
1040.639867558  2.84846E-14 
1051.0462662336  4.27696E-14 
1061.556728896  7.46237E-14 
1072.1722961849  1.27537E-13 
1082.8940191468  1.90521E-13 
1093.7229593382  3.15361E-13 
1104.6601889316  6.55778E-13 
1115.7067908209  1.14368E-12 
1126.8638587291   2.1171E-12 
1138.1324973164  3.13535E-12 
1149.5138222896  5.08604E-12 
1161.0089605125   8.0044E-12 
1172.6190501176   1.4837E-11 
1184.3452406188 2.485115E-11 
1196.188693025  3.94833E-11 
1208.1505799552  7.33874E-11 
1220.2320857548  8.70738E-11 
1232.4344066123  1.32995E-10 
1244.7587506785  3.40413E-10 
1257.2063381852  7.12769E-10 
1269.7784015671   1.11986E-9 
1282.4761855828   2.23401E-9 
1295.3009474386    4.9857E-9 
1308.253956913   6.27265E-9 
1321.3364964821   9.39646E-9 
1334.5498614469  1.409455E-8 
1347.8953600614   2.13354E-8 
1361.374313662   2.78581E-8 
1374.9880567986  3.059755E-8 
1388.7379373666   4.69688E-8 
1402.6253167403  7.289765E-8 
1416.6515699077   8.14674E-8 
1430.8180856068 1.6354070588235E-7 
1445.1262664628 1.8606361538462E-7 
1459.5775291275   2.81781E-7 
1474.1733044187    3.4735E-7 
1488.9150374629     5.959E-7 
1503.8041878376 8.0640209090909E-7 
1518.8422297159   1.13612E-6 
1534.0306520131   1.46582E-6 
1549.3709585332   1.82505E-6 
1564.8646681186    2.5079E-6 
1580.5133147997  3.476695E-6 
1596.3184479477    4.1842E-6 
1612.2816324272   5.10001E-6 
1628.4044487515   6.83737E-6 
1644.688493239  9.369725E-6 
1661.1353781714 1.5255981818182E-5 
1677.7467319531    2.3702E-5 
1694.5241992726   3.68682E-5 
1711.4694412654  5.182725E-5 
1728.584135678  8.290055E-5 
1745.8699770348    9.9401E-5 
1763.3286768051  0.000125436 
1780.9619635732 0.0002098365 
1798.7715832089  0.000299515 
1816.759299041  0.000407199 
1834.9268920314  0.000476039 
1853.2761609517  0.000619229 
1871.8089225613 0.0008457985 
1890.5270117869   0.00120659 
1909.4322819047   0.00159335 
1928.5266047238   0.00164407 
1947.811870771 0.0033027209090909 
1967.2899894787   0.00453132 
1986.9628893735 0.0052393857142857 
2006.8325182673   0.00654883 
2026.9008434499  0.008246155 
2047.1698518844    0.0100982 
2067.6415504033  0.013689637 
2088.3179659073    0.0702754 
2109.2011455664   0.09431595 
2130.293157022   0.12251045 
2151.5960885923     0.137025 
2173.1120494782    0.1325105 
2194.843169973 0.27312333333333 
2216.7916016727     0.368338 
2238.9595176894    0.7573105 
2261.3491128663    0.5291425 
2283.962603995 0.85537333333333 
2306.8022300349     1.994825 
2329.8702523353     2.461215 
2353.1689548586 1.3085176666667 
2376.7006444072      3.54334 
2400.4676508513      6.80587 
2424.4723273598 10.605066666667 
2448.7170506334     15.69882 
2473.2042211397 10.569506666667 
2497.9362633511 11.953453913043 
2522.9156259846 49.321822222222 
2548.1447822445     56.48025 
2573.6262300669      47.6426 
2599.3624923676 93.241866666667 
2625.3561172913      218.213 
2651.6096784642      204.944 
2678.1257752488      206.812 
2704.9070330013 272.93266666667 
2731.9561033313 307.59566666667 
2759.2756643647      545.933 
2786.8684210083      561.652 
2814.7371052184      421.537 
2842.8844762706 163.20623333333 
2871.3133210333      842.482 
2900.0264542436       1495.2 
2929.026718786     1795.885 
2958.3169859739      1651.42 
2987.9001558336     1931.295 
3017.779157392      2442.64 
3047.9569489659     3104.455 
3078.4365184556      2599.33 
3109.2208836401     4769.055 
3140.3130924765     8496.885 
3171.7162234013      8821.39 
3203.4333856353      11427.2 
3235.4677194916      17703.2 
3267.8223966866     26178.25 
3300.5006206534     23206.95 
3333.50562686      20518.8 
3366.8406831286      16264.3 
3400.5090899598        24103 
3434.5141808594      19669.4 
3468.859322668      23803.7 
3503.5479158947     37153.45 
3538.5833950537      41803.1 
3573.9692290042        21449 
3609.7089212942     39917.72 
3645.8060105072 64393.233333333 
3682.2640706123     49131.95 
3719.0867113184      21289.3 
3756.2775784316     65692.75 
3793.8403542159      48448.9 
3831.778757758      47692.8 
3870.0965453356      46593.1 
3908.797510789     45517.15 
3947.8854858969     42473.55 
3987.3643407558     117009.3 
4027.2379841634       113226 
4067.510364005     130018.5 
4108.1854676451      91457.8 
4149.2673223215 97468.466666667 
4190.7599955447      57630.3 
4232.6675955002     97488.45 
4274.9942714552       116767 
4317.7442141697       179531 
4360.9216563114     185911.5 
4404.5308728746     182537.5 
4448.5761816033 222411.66666667 
4493.0619434193       241504 
4537.9925628535     259647.5 
4583.3724884821     265499.5 
4629.2062133669 275875.33333333 
4675.4982755006     276079.5 
4722.2532582556     260456.5 
4769.4757908381 228121.66666667 
4817.1705487465     285427.5 
4865.342254234 318097.66666667 
4913.9956767763     296756.5 
4963.1356335441       226703 
5012.7669898795     208126.5 
5062.8946597783 188148.33333333 
5113.5236063761       168605 
5164.6588424398 188787.33333333 
5216.3054308642       380020 
5268.4684851729 394100.33333333 
5321.1531700246 412260.66666667 
5374.3647017249       418885 
5428.1083487421 406826.33333333 
5482.3894322295       426048 
5537.2133265518       444972 
5592.5854598173     445320.5 
5648.5113144155       492804 
5704.9964275597       518481 
5762.0463918353 532508.33333333 
5819.6668557536       507062 
5877.8635243112 353822.66666667 
5936.6421595543 525589.33333333 
5996.0085811498 563598.66666667 
6055.9686669613 577301.33333333 
6116.5283536309 529071.66666667 
6177.6936371672 522316.33333333 
6239.4705735389 538649.33333333 
6301.8652792743 591533.33333333 
6364.883932067 604568.66666667 
6428.5327713877       582278 
6492.8180991016 624798.33333333 
6557.7462800926 631666.33333333 
6623.3237428935       622837 
6689.5569803225     572230.5 
6756.4525501257 588470.66666667 
6824.0170756269    625732.75 
6892.2572463832       660048 
6961.179818847    685365.25 
7030.7916170355 621738.33333333 
7101.0995332059    556363.75 
7172.1105285379 614715.33333333 
7243.8316338233       677743 
7316.2699501615 699997.33333333 
7389.4326496631    718151.25 
7463.3269761598       726763 
7537.9602459214    726286.75 
7613.3398483806 691610.33333333 
7689.4732468644    687854.25 
7766.367979333    706557.75 
7844.0316591264    718555.25 
7922.4719757176    726735.75 
8001.6966954748     732354.5 
8081.7136624296    737655.75 
8162.5307990539       718829 
8244.1561070444    729182.75 
8326.5976681148    710179.25 
8409.863644796     708482.8 
8493.9622812439    695047.75 
8578.9019040564    724013.75 
8664.6909230969       706943 
8751.3378323279    719573.25 
8838.8512106512     708481.5 
8927.2397227577     704834.2 
9016.5121199853    709769.25 
9106.6772411851     711739.8 
9197.744013597       707424 
9289.721453733     699763.6 
9382.6186682703     697914.2 
9476.444854953     692540.8 
9571.2093035025    680407.25 
9666.9213965375     669583.4 
9763.5906105029     670982.4 
9861.226516608     674041.2 
9959.838781774     669843.2 
10059.437169592       664824 
10160.031541288       660365 
10261.631856701       653816 
10364.248175268       649920 
10467.89065702       644981 
10572.56956359 637635.66666667 
10678.295259226       630997 
10785.078211819       625021 
10892.928993937     616197.5 
11001.858283876     606865.5 
11111.876866715       597345 
11222.995635382 589473.66666667 
11335.225591736       572022 
11448.577847653       576723 
11563.06362613 565616.33333333 
11678.694262391       559077 
11795.481205015       550761 
11913.436017065       547262 
12032.570377236     545487.5 
12152.896081008     542216.5 
12274.425041818 536055.66666667 
12397.169292236     530452.5 
12521.140985159       524483 
12646.35239501       518509 
12772.81591896 511004.33333333 
12900.54407815       505385 
13029.549518932     494588.5 
13159.845014121 486296.66666667 
13291.443464262     432594.5 
13424.357898905 408494.33333333 
13558.601477894       407059 
13694.187492673       411376 
13831.129367599     388451.5 
13969.440661275       377286 
14109.135067888       361000 
14250.226418567 355861.66666667 
14392.728682753       353776 
14536.65596958     344270.3 
14682.022529276 340743.33333333 
14828.842754569       340857 
14977.131182115 339301.33333333 
15126.902493936       341017 
15278.171518875 337950.33333333 
15430.953234064 338674.66666667 
15585.262766404       339645 
15741.115394068       341924 
15898.526548009 343951.28571429 
16057.511813489       343607 
16218.086931624     343707.5 
16380.26780094       345097 
16544.07047895       343916 
16709.511183739       335108 
16876.606295577       325470 
17045.372358532     306560.5 
17215.826082118     284153.5 
17387.984342939       257576 
17561.864186368       240497 
17737.482828232     221729.5 
17914.857656514     206176.5 
18094.006233079     197759.5 
18274.94629541     187037.5 
18457.695758364       173737 
18642.272715948     171963.5 
18828.695443107       175824 
19016.982397539       175646 
19207.152221514     170300.5 
19399.223743729       165969 
19593.215981166       160091 
19789.148140978       150772 
19987.039622388       147027 
20186.910018612       144018 
20388.779118798       142392 
20592.666909986       139315 
20798.593579086     138325.5 
21006.579514877       138689 
21216.645310025       138486 
21428.811763126       139150 
21643.099880757 139870.33333333 
21859.530879564     138974.5 
22078.12618836       139430 
22298.907450244     138871.5 
22521.896524746     136555.5 
22747.115489993       131739 
22974.586644893     124702.5 
23204.332511342     116323.5 
23436.375836456 110446.33333333 
23670.73959482    104154.25 
23907.446990769     95845.75 
24146.521460676 84892.533333333 
24387.986675283     76288.65 
24631.866542036 69567.433333333 
24878.185207456      65065.6 
25126.967059531 60701.066666667 
25378.236730126      59378.7 
25632.019097427        57347 
25888.339288402      57208.2 
26147.222681286      58393.1 
26408.694908098 57875.633333333 
26672.781857179     54435.85 
26939.509675751      50834.8 
27208.904772509 47898.833333333 
27480.993820234 45897.466666667 
27755.803758436      45006.5 
28033.361796021 42586.633333333 
28313.695413981 41487.266666667 
28596.832368121      40494.2 
28882.800691802      39416.5 
29171.62869872      37108.8 
29463.344985707 36758.066666667 
29757.978435564 35076.933333333 
30055.55821992 34833.166666667 
30356.113802119      33814.4 
30659.67494014      32824.9 
30966.271689541      32639.8 
31275.934406437 31774.633333333 
31588.693750501        31485 
31904.580688006      31005.8 
32223.626494886     30592.45 
32545.862759835      30136.3 
32871.321387434     29967.25 
33200.034601308      29454.7 
33532.034947321      29122.3 
33867.355296794      28741.6 
34206.028849762     28312.45 
34548.08913826      28264.9 
34893.570029642     27531.45 
35242.505729939      27030.9 
35594.930787238     26522.65 
35950.880095111      26033.7 
36310.388896062      25574.4 
36673.492785022     25181.25 
37040.227712872     24680.45 
37410.629990001     24204.85 
37784.736289901      23733.6 
38162.5836528      22979.4 
38544.209489328        22371 
38929.651584221     21678.75 
39318.948100064     20848.75 
39712.137581064     19812.35 
40109.258956875     18950.85 
40510.351546444      17806.3 
40915.455061908      17198.7 
41324.609612527      16520.4 
41737.855708653     15916.05 
42155.234265739     15344.75 
42576.786608396     14747.15 
43002.55447448     13913.25 
43432.580019225      13164.8 
43866.905819417 12366.633333333 
44305.574877612     11717.75 
44748.630626388      11277.3 
45196.116932652     10846.05 
45648.078101978      10407.2 
46104.558882998     9978.755 
46565.604471828      9693.49 
47031.260516546 9370.4933333333 
47501.573121712      8896.61 
47976.588852929      8629.78 
48456.354741458 8197.6333333333 
48940.918288873      7948.52 
49430.327471761 7590.8266666667 
49924.630746479     7198.795 
50423.877053944 6928.0333333333 
50928.115824483      6675.99 
51437.396982728 6405.0266666667 
51951.770952555     6198.015 
52471.288662081 5917.1933333333 
52996.001548702      5734.79 
53525.961564189       5518.8 
54061.221179831      5243.52 
54601.833391629       5125.1 
55147.851725545       4878.1 
55699.330242801      4795.89 
56256.323545229       4604.5 
56818.886780681      4389.53 
57387.075648488      4318.51 
57960.946404973      4150.85 
58540.555869022 4036.5966666667 
59125.961427713 3920.3066666667 
59717.22104199 3836.6366666667 
60314.39325241 3719.0166666667 
60917.537184934      3641.53 
61526.712556783      3541.41 
62141.979682351      3436.86 
62763.399479174 3333.0033333333 
63391.033473966 3170.2366666667 
64024.943808706 2883.6128571429 
64665.193246793      2672.25 
65311.845179261     2512.395 
65964.963631053     2361.015 
66624.613267364      2276.58 
67290.859400038      2213.27 
67963.767994038     2116.335 
68643.405673978      2062.72 
69329.839730718       2018.1 
70023.138128025      1921.22 
70723.369509305     1852.475 
71430.603204399      1835.99 
72144.909236443      1741.37 
72866.358328807      1695.58 
73595.021912095      1629.04 
74330.972131216     1578.295 
75074.281852528      1507.81 
75825.024671053      1448.15 
76583.274917764      1424.77 
77349.107666942      1361.12 
78122.598743611      1314.38 
78903.824731047     1255.115 
79692.862978358     1211.605 
80489.791608141      1158.48 
81294.689524223     1128.515 
82107.636419465       1087.8 
82928.712783659       1043.5 
83757.999911496     1012.305 
84595.579910611 974.51633333333 
85441.535709717      940.209 
86295.951066814     919.8685 
87158.910577482      878.603 
88030.499683257      856.666 
88910.80468009     838.8445 
89799.912726891 808.08766666667 
90697.91185416     781.8635 
91604.890972701     759.9095 
92520.939882428 730.58433333333 
93446.149281253     702.3525 
94380.610774065      680.574 
95324.416881806 660.61466666667 
96277.661050624      631.775 
97240.43766113 615.03233333333 
98212.842037741     581.1325 
99194.970458119     569.8725 
100186.9201627      555.713 
199060.83304441        40.04 
399467.9878358      2.66348 
594753.39981818     0.535312 
793700.71765891     0.170423 
997811.18987739    0.0699362 
1193529.3359837    0.0337225 
1399507.0114645    0.0181815 
