#  WAVELENGTH	        FLUX	
#  (ANGSTROM)	(ERG/CM2/S/A)	
############	############	
355.29745074603   4.6961E-24 
362.43892950602  3.08852E-23 
373.42119150899  1.84455E-22 
384.7362270329  1.21182E-21 
392.46942519626  7.19319E-21 
404.36164124913  3.89053E-20 
412.48931023824  1.65143E-19 
420.78034537403  5.64743E-19 
429.23803031605  1.83962E-18 
437.8657147254  8.66196E-18 
446.66681559138  3.30146E-17 
455.64481858477  1.04395E-16 
469.4513122327  3.55071E-16 
478.88728360858  1.14288E-15 
488.51291800911  3.49663E-15 
498.3320276611  1.01865E-14 
503.31534793771  2.51123E-14 
508.34850141708  5.17376E-14 
518.56630629557  1.12764E-13 
528.98948905211  2.90172E-13 
539.62217778206  7.07285E-13 
545.01839955988  1.68526E-12 
555.97326939103   3.8592E-12 
567.14833210579   8.5609E-12 
578.54801358112  1.82172E-11 
584.33349371693  3.85398E-11 
596.07859694064  7.84593E-11 
608.05977673914  1.55694E-10 
614.14037450653  3.01453E-10 
626.48459603412  5.70325E-10 
639.0769364144   1.05588E-9 
645.46770577855   1.91459E-9 
651.92238283633    3.0375E-9 
658.44160666469   4.50237E-9 
671.67628295866   7.77722E-9 
678.39304578824   1.31961E-8 
692.02874600859   2.20146E-8 
698.94903346867   3.61121E-8 
712.99790904139   6.11924E-8 
720.12788813181   9.72638E-8 
734.60245868325   1.45852E-7 
741.94848327009   2.25845E-7 
749.36796810279   3.45181E-7 
764.43026426165   5.20961E-7 
772.07456690427   7.76825E-7 
779.79531257331   1.14506E-6 
787.59326569905   1.66619E-6 
803.4238903396   2.40569E-6 
811.45812924299   3.43481E-6 
819.57271053542   4.85481E-6 
827.76843764078   6.79731E-6 
844.40658323736    9.4306E-6 
852.85064906973   1.29676E-5 
861.37915556043   1.76809E-5 
869.99294711603   2.39006E-5 
878.69287658719   3.20784E-5 
887.47980535306   4.27117E-5 
896.3546034066   5.64158E-5 
914.37133093507     0.108966 
923.51504424442     0.445099 
932.75019468686     0.598734 
942.07769663373      0.81364 
951.49847360007      1.13156 
961.01345833607      1.45465 
970.62359291943       1.6503 
980.32982884862       2.3155 
990.13312713711      2.81072 
1000.0344584085      3.69926 
1010.0348029926      4.42982 
1020.1351510225      4.77695 
1030.3365025327      6.88803 
1040.639867558      8.64562 
1051.0462662336       10.601 
1061.556728896      12.6562 
1072.1722961849      15.5882 
1082.8940191468      18.9721 
1093.7229593382      22.3916 
1104.6601889316     113.4234 
1115.7067908209        224.7 
1126.8638587291      299.987 
1138.1324973164      353.102 
1149.5138222896      359.385 
1161.0089605125      425.519 
1172.6190501176      429.141 
1184.3452406188      352.815 
1196.188693025      120.097 
1208.1505799552      32.2571 
1220.2320857548      138.973 
1232.4344066123      355.704 
1244.7587506785     970.7905 
1257.2063381852       1652.6 
1269.7784015671      2367.74 
1282.4761855828      3997.21 
1295.3009474386      4903.62 
1308.253956913      6660.43 
1321.3364964821      8279.31 
1334.5498614469    10898.915 
1347.8953600614      13223.5 
1361.374313662      15518.1 
1374.9880567986      18509.5 
1388.7379373666      22471.9 
1402.6253167403     27812.55 
1416.6515699077      33403.8 
1430.8180856068 37702.994117647 
1445.1262664628 47524.946153846 
1459.5775291275      50955.1 
1474.1733044187      60236.1 
1488.9150374629      71938.8 
1503.8041878376     82237.45 
1518.8422297159      95438.6 
1534.0306520131     270254.5 
1549.3709585332       292594 
1564.8646681186       235918 
1580.5133147997       261636 
1596.3184479477       270407 
1612.2816324272     570065.5 
1628.4044487515      1348110 
1644.688493239      2279340 
1661.1353781714 3840499.5454545 
1677.7467319531      6330540 
1694.5241992726      6282240 
1711.4694412654      7835560 
1728.584135678      8980915 
1745.8699770348     10211400 
1763.3286768051      8862840 
1780.9619635732     10759160 
1798.7715832089     10697100 
1816.759299041      9823930 
1834.9268920314      9505380 
1853.2761609517     10016370 
1871.8089225613     10570350 
1890.5270117869     10838950 
1909.4322819047     11590750 
1928.5266047238     11124660 
1947.811870771 12833263.636364 
1967.2899894787 12719623.529412 
1986.9628893735 11956042.857143 
2006.8325182673     11234650 
2026.9008434499     12620800 
2047.1698518844     12375900 
2067.6415504033     13870575 
2088.3179659073     12873550 
2109.2011455664     13031700 
2130.293157022     11701650 
2151.5960885923     12223900 
2173.1120494782     12034700 
2194.843169973 12666166.666667 
2216.7916016727     12674400 
2238.9595176894     11844150 
2261.3491128663     11972000 
2283.962603995     12445000 
2306.8022300349     12219750 
2329.8702523353     10228715 
2353.1689548586 11174386.666667 
2376.7006444072      9375370 
2400.4676508513      9903175 
2424.4723273598 11923433.333333 
2448.7170506334     12127250 
2473.2042211397 11419266.666667 
2497.9362633511 12240860.869565 
2522.9156259846 10262596.296296 
2548.1447822445     11240300 
2573.6262300669 12278433.333333 
2599.3624923676     11666500 
2625.3561172913     14032300 
2651.6096784642     14400400 
2678.1257752488     13994900 
2704.9070330013 13279933.333333 
2731.9561033313 12553666.666667 
2759.2756643647 13502466.666667 
2786.8684210083      8861160 
2814.7371052184 14894466.666667 
2842.8844762706     13963300 
2871.3133210333 14305366.666667 
2900.0264542436     15767000 
2929.026718786     15185200 
2958.3169859739     15515200 
2987.9001558336     15731450 
3017.779157392     15826000 
3047.9569489659     15882650 
3078.4365184556     16162000 
3109.2208836401     15829700 
3140.3130924765     16257500 
3171.7162234013     15493700 
3203.4333856353     15664200 
3235.4677194916     15917000 
3267.8223966866     16284150 
3300.5006206534     16419150 
3333.50562686     16076000 
3366.8406831286     16041900 
3400.5090899598     16368750 
3434.5141808594     16324500 
3468.859322668     16170300 
3503.5479158947     16462800 
3538.5833950537     16472450 
3573.9692290042     16181300 
3609.7089212942     16317720 
3645.8060105072 16582166.666667 
3682.2640706123     17330400 
3719.0867113184     24027600 
3756.2775784316     32007400 
3793.8403542159     36016900 
3831.778757758     45390250 
3870.0965453356     29636300 
3908.797510789     45588550 
3947.8854858969     37509850 
3987.3643407558     48161200 
4027.2379841634     49601100 
4067.510364005     43619950 
4108.1854676451     38532050 
4149.2673223215     46917400 
4190.7599955447     45770050 
4232.6675955002     44836200 
4274.9942714552     42714550 
4317.7442141697     31769000 
4360.9216563114     41833950 
4404.5308728746     41646100 
4448.5761816033     41159600 
4493.0619434193     40416800 
4537.9925628535     39511450 
4583.3724884821     39166850 
4629.2062133669 38433266.666667 
4675.4982755006     37028850 
4722.2532582556     37041150 
4769.4757908381     35992300 
4817.1705487465     31307550 
4865.342254234 29857433.333333 
4913.9956767763     33356100 
4963.1356335441 32831833.333333 
5012.7669898795     32238750 
5062.8946597783 31691366.666667 
5113.5236063761     30813250 
5164.6588424398 29731666.666667 
5216.3054308642     29437300 
5268.4684851729     28736400 
5321.1531700246 28102533.333333 
5374.3647017249     27509950 
5428.1083487421 27031533.333333 
5482.3894322295 26459366.666667 
5537.2133265518 25805066.666667 
5592.5854598173     25309600 
5648.5113144155 24800166.666667 
5704.9964275597 24240233.333333 
5762.0463918353 23662566.666667 
5819.6668557536     23089400 
5877.8635243112     22459200 
5936.6421595543 21997866.666667 
5996.0085811498 21461333.333333 
6055.9686669613 20970233.333333 
6116.5283536309 20375766.666667 
6177.6936371672 19995966.666667 
6239.4705735389     19500700 
6301.8652792743     19060400 
6364.883932067 18618033.333333 
6428.5327713877     18061450 
6492.8180991016     16779800 
6557.7462800926 15313666.666667 
6623.3237428935 16842566.666667 
6689.5569803225     16461200 
6756.4525501257     16048000 
6824.0170756269     15634950 
6892.2572463832     15241100 
6961.179818847     14850950 
7030.7916170355 14485433.333333 
7101.0995332059     14095050 
7172.1105285379 13758733.333333 
7243.8316338233     13423925 
7316.2699501615 13101766.666667 
7389.4326496631     12768150 
7463.3269761598     12414575 
7537.9602459214     12095775 
7613.3398483806 11799733.333333 
7689.4732468644     11519425 
7766.367979333     11182550 
7844.0316591264     10901825 
7922.4719757176     10613575 
8001.6966954748     10343275 
8081.7136624296     10076875 
8162.5307990539    9797607.5 
8244.1561070444    9576832.5 
8326.5976681148      9299225 
8409.863644796      9004166 
8493.9622812439    8649457.5 
8578.9019040564      8710555 
8664.6909230969      8346684 
8751.3378323279      8861325 
8838.8512106512    8141682.5 
8927.2397227577      8271006 
9016.5121199853      8081775 
9106.6772411851      8192668 
9197.744013597    7233992.5 
9289.721453733      7798122 
9382.6186682703      7545754 
9476.444854953      6798590 
9571.2093035025      7084230 
9666.9213965375      6958608 
9763.5906105029      6770194 
9861.226516608      6559436 
9959.838781774 6189664.6666667 
10059.437169592      5899480 
10160.031541288      6038915 
10261.631856701      5871660 
10364.248175268      5708755 
10467.89065702      5532985 
10572.56956359      5331310 
10678.295259226      5151990 
10785.078211819      4987015 
10892.928993937      4485360 
11001.858283876      4752595 
11111.876866715      4639455 
11222.995635382 4472413.3333333 
11335.225591736      4332120 
11448.577847653      4229875 
11563.06362613      4075860 
11678.694262391      3941775 
11795.481205015      3836950 
11913.436017065      3731110 
12032.570377236      3613500 
12152.896081008      3530595 
12274.425041818      3419070 
12397.169292236      3316695 
12521.140985159      3209600 
12646.35239501      3108935 
12772.81591896 2840766.6666667 
12900.54407815      2911460 
13029.549518932      2829765 
13159.845014121 2745576.6666667 
13291.443464262      2666215 
13424.357898905 2588216.6666667 
13558.601477894 2498246.6666667 
13694.187492673      2408050 
13831.129367599      2343665 
13969.440661275      2277650 
14109.135067888 2200263.3333333 
14250.226418567 2126696.6666667 
14392.728682753 2045966.6666667 
14536.65596958 1987524.6666667 
14682.022529276 1922383.3333333 
14828.842754569      1860690 
14977.131182115      1797770 
15126.902493936      1740280 
15278.171518875 1675216.6666667 
15430.953234064      1620150 
15585.262766404      1566780 
15741.115394068 1515206.6666667 
15898.526548009 1504764.2857143 
16057.511813489      1386330 
16218.086931624      1424445 
16380.26780094      1296310 
16544.07047895      1356730 
16709.511183739      1229880 
16876.606295577      1257650 
17045.372358532      1221505 
17215.826082118      1110705 
17387.984342939      1111505 
17561.864186368      1086290 
17737.482828232      1054760 
17914.857656514      1010365 
18094.006233079     919628.5 
18274.94629541       933419 
18457.695758364       905559 
18642.272715948       836313 
18828.695443107       839930 
19016.982397539     814883.5 
19207.152221514       780136 
19399.223743729       717108 
19593.215981166       726286 
19789.148140978       700359 
19987.039622388     675102.5 
20186.910018612     650579.5 
20388.779118798       627632 
20592.666909986     605192.5 
20798.593579086       584108 
21006.579514877     563513.5 
21216.645310025       543897 
21428.811763126       523892 
21643.099880757       487269 
21859.530879564       482726 
22078.12618836     466589.5 
22298.907450244     451541.5 
22521.896524746     436536.5 
22747.115489993 419289.66666667 
22974.586644893       402843 
23204.332511342     390208.5 
23436.375836456       375091 
23670.73959482       360518 
23907.446990769       349309 
24146.521460676 335883.33333333 
24387.986675283     323050.5 
24631.866542036 311106.66666667 
24878.185207456     298479.5 
25126.967059531 287727.66666667 
25378.236730126       279905 
25632.019097427 266721.66666667 
25888.339288402       259691 
26147.222681286       239982 
26408.694908098       241136 
26672.781857179     225132.5 
26939.509675751 226068.66666667 
27208.904772509 216558.33333333 
27480.993820234 201977.66666667 
27755.803758436     201189.5 
28033.361796021 194514.66666667 
28313.695413981 186714.33333333 
28596.832368121 174037.33333333 
28882.800691802 172554.33333333 
29171.62869872 166007.66666667 
29463.344985707 159725.66666667 
29757.978435564 153717.66666667 
30055.55821992 145137.33333333 
30356.113802119 140894.66666667 
30659.67494014 137311.33333333 
30966.271689541       132302 
31275.934406437       127583 
31588.693750501       123077 
31904.580688006     118884.8 
32223.626494886       113933 
32545.862759835       109906 
32871.321387434       103426 
33200.034601308     101197.5 
33532.034947321      97780.9 
33867.355296794     94575.85 
34206.028849762     90496.25 
34548.08913826      87548.7 
34893.570029642     84727.35 
35242.505729939      81118.9 
35594.930787238      77713.7 
35950.880095111     74473.25 
36310.388896062      72006.6 
36673.492785022     69837.55 
37040.227712872      66604.4 
37410.629990001      63466.5 
37784.736289901      61757.5 
38162.5836528      59411.2 
38544.209489328     57230.25 
38929.651584221     54550.05 
39318.948100064        53079 
39712.137581064      50720.8 
40109.258956875     47829.05 
40510.351546444     47246.85 
40915.455061908      45571.6 
41324.609612527      43159.2 
41737.855708653      42251.1 
42155.234265739     40793.65 
42576.786608396      39341.6 
43002.55447448      37951.2 
43432.580019225      36064.4 
43866.905819417      34953.7 
44305.574877612     33566.15 
44748.630626388      32408.2 
45196.116932652      31318.7 
45648.078101978      30016.2 
46104.558882998     28254.75 
46565.604471828     27283.95 
47031.260516546 26721.166666667 
47501.573121712      25660.6 
47976.588852929     24846.45 
48456.354741458 23871.933333333 
48940.918288873     22942.45 
49430.327471761      22074.8 
49924.630746479     21220.55 
50423.877053944      20429.6 
50928.115824483      19302.1 
51437.396982728 18907.933333333 
51951.770952555     18271.25 
52471.288662081      17562.3 
52996.001548702      16849.6 
53525.961564189     16163.85 
54061.221179831      15673.7 
54601.833391629 15003.466666667 
55147.851725545        14413 
55699.330242801 13997.566666667 
56256.323545229 13428.366666667 
56818.886780681 12802.933333333 
57387.075648488 12372.466666667 
57960.946404973 11888.833333333 
58540.555869022      11278.4 
59125.961427713 10867.966666667 
59717.22104199 10563.266666667 
60314.39325241 10165.833333333 
60917.537184934 9782.3666666667 
61526.712556783         9418 
62141.979682351 9059.6466666667 
62763.399479174      8641.66 
63391.033473966      8419.99 
64024.943808706 8054.3957142857 
64665.193246793      7780.09 
65311.845179261     7506.565 
65964.963631053      7159.03 
66624.613267364      6911.15 
67290.859400038     6613.135 
67963.767994038      6371.31 
68643.405673978      6159.36 
69329.839730718     5951.705 
70023.138128025     5693.925 
70723.369509305      5443.18 
71430.603204399      5271.04 
72144.909236443       5096.2 
72866.358328807      4886.51 
73595.021912095     4681.585 
74330.972131216     4380.885 
75074.281852528     4301.485 
75825.024671053      4175.51 
76583.274917764      4049.36 
77349.107666942      3875.67 
78122.598743611      3734.89 
78903.824731047      3589.13 
79692.862978358      3450.34 
80489.791608141     3318.255 
81294.689524223     3176.965 
82107.636419465      3072.45 
82928.712783659      2957.99 
83757.999911496      2848.76 
84595.579910611 2719.8233333333 
85441.535709717      2597.35 
86295.951066814     2488.195 
87158.910577482     2393.605 
88030.499683257      2331.05 
88910.80468009      2250.03 
89799.912726891      2153.68 
90697.91185416     2062.125 
91604.890972701       1992.5 
92520.939882428 1909.2333333333 
93446.149281253     1815.915 
94380.610774065     1770.185 
95324.416881806      1698.66 
96277.661050624     1631.065 
97240.43766113 1566.2133333333 
98212.842037741      1503.32 
99194.970458119     1457.775 
100186.9201627      1423.62 
199060.83304441      92.1595 
399467.9878358        5.788 
594753.39981818      1.13825 
793700.71765891     0.358165 
997811.18987739     0.145919 
1193529.3359837    0.0700222 
1399507.0114645    0.0376288 
