#  WAVELENGTH	        FLUX	
#  (ANGSTROM)	(ERG/CM2/S/A)	
############	############	
123.7446610678  2.20678E-23 
126.23192875526  4.82993E-22 
127.49424804281  1.08975E-21 
130.05688242847  3.86723E-21 
131.35745125276  1.17134E-20 
132.67102576529  2.74586E-20 
135.33771338317  1.21788E-19 
139.43858143639  6.63594E-19 
142.24129692326  3.90327E-18 
146.55135046134  2.55688E-17 
150.99200293167  1.45904E-16 
154.02694219059  9.07751E-16 
158.69411256591  4.03272E-15 
161.88386422848  1.43707E-14 
165.13772989948  6.57118E-14 
170.14156825316   3.1108E-13 
171.84298393569  9.09663E-13 
175.2970279128   2.8225E-12 
178.82049817385  8.38732E-12 
180.60870315558  1.33839E-11 
186.0813274699  5.04629E-11 
189.82156215205  2.05626E-10 
193.6369755513  4.56317E-10 
197.52907875988   1.49811E-9 
201.49941324296   3.54774E-9 
203.51440737539   7.77422E-9 
209.68109743327   2.82678E-8 
216.03464436659   1.00287E-7 
218.19499081026   2.15346E-7 
222.58071012555   4.15698E-7 
224.8065172268   8.85245E-7 
229.32512822306   3.35816E-5 
233.93456330034   8.26582E-5 
238.63664802268   0.00021556 
245.86757709442  0.000579571 
250.80951539401    0.0013745 
255.85078665343   0.00236694 
258.40929451997   0.00389904 
263.60332133982   0.00652639 
266.23935455322    0.0114714 
271.59076557974    0.0209432 
277.04973996789    0.0375703 
282.61843974125    0.0702354 
288.29907038004     0.133419 
294.09388169468     0.246692 
300.00516871675      0.40073 
306.03527260795     0.744732 
315.30844740325      1.94114 
324.86260866801      4.43495 
334.70627057326      9.88224 
344.8482052779      20.7017 
355.29745074603      40.8509 
362.43892950602      75.1571 
373.42119150899      129.959 
384.7362270329      236.078 
392.46942519626      413.759 
404.36164124913      701.736 
412.48931023824      1110.61 
420.78034537403      1618.37 
429.23803031605      2346.16 
437.8657147254      3822.11 
446.66681559138      5819.66 
455.64481858477      8302.66 
469.4513122327      12232.6 
478.88728360858      17570.9 
488.51291800911      24982.5 
498.3320276611      34934.8 
503.31534793771       304256 
508.34850141708      1116740 
518.56630629557      1359880 
528.98948905211      1805730 
539.62217778206      1992050 
545.01839955988      2858170 
555.97326939103      3392960 
567.14833210579      4201770 
578.54801358112      4180880 
584.33349371693      5557220 
596.07859694064      6705910 
608.05977673914      8028980 
614.14037450653      9163070 
626.48459603412     10553000 
639.0769364144     11393000 
645.46770577855     12091900 
651.92238283633     14951200 
658.44160666469     16295900 
671.67628295866     17524900 
678.39304578824     19264200 
692.02874600859     22985600 
698.94903346867     24761400 
712.99790904139     28217200 
720.12788813181     30519500 
734.60245868325     32918700 
741.94848327009     37249200 
749.36796810279     40778400 
764.43026426165     44537500 
772.07456690427     48835000 
779.79531257331     53283600 
787.59326569905     56949500 
803.4238903396     61129200 
811.45812924299     64725800 
819.57271053542     70782500 
827.76843764078     71485500 
844.40658323736     78767800 
852.85064906973     83630100 
861.37915556043     89879600 
869.99294711603     97053000 
878.69287658719    104482000 
887.47980535306    110730000 
896.3546034066    114501000 
914.37133093507    232916000 
923.51504424442   3179660000 
932.75019468686   6878530000 
942.07769663373  11067900000 
951.49847360007  12427600000 
961.01345833607  13824000000 
970.62359291943   4555050000 
980.32982884862  12698700000 
990.13312713711  12230100000 
1000.0344584085  13394800000 
1010.0348029926  13274500000 
1020.1351510225   8516920000 
1030.3365025327  11056500000 
1040.639867558  14750800000 
1051.0462662336  13902200000 
1061.556728896  12310700000 
1072.1722961849  13620100000 
1082.8940191468  12374700000 
1093.7229593382  13705300000 
1104.6601889316  12757600000 
1115.7067908209  11384100000 
1126.8638587291  12994900000 
1138.1324973164  12137000000 
1149.5138222896  12513800000 
1161.0089605125  12555800000 
1172.6190501176   9435010000 
1184.3452406188  11752950000 
1196.188693025   8624160000 
1208.1505799552   6512660000 
1220.2320857548  10767200000 
1232.4344066123  11443300000 
1244.7587506785  11234850000 
1257.2063381852  11003000000 
1269.7784015671  11234300000 
1282.4761855828  10055810000 
1295.3009474386   9568540000 
1308.253956913  10628300000 
1321.3364964821  10158000000 
1334.5498614469   9839685000 
1347.8953600614   9954700000 
1361.374313662   9484860000 
1374.9880567986   9300600000 
1388.7379373666   7939880000 
1402.6253167403   8494350000 
1416.6515699077   8511500000 
1430.8180856068 8646814705.8824 
1445.1262664628 8447200769.2308 
1459.5775291275   8071460000 
1474.1733044187   7967195000 
1488.9150374629   7775570000 
1503.8041878376 7153976363.6364 
1518.8422297159   7091980000 
1534.0306520131   6475775000 
1549.3709585332   6215210000 
1564.8646681186   6595630000 
1580.5133147997   6589225000 
1596.3184479477   6391040000 
1612.2816324272   6263800000 
1628.4044487515   6390500000 
1644.688493239   6247540000 
1661.1353781714 6188924545.4545 
1677.7467319531   6154710000 
1694.5241992726   5849685000 
1711.4694412654   5521635000 
1728.584135678   5506690000 
1745.8699770348   5483590000 
1763.3286768051   5239460000 
1780.9619635732   5205220000 
1798.7715832089   5052175000 
1816.759299041   4968850000 
1834.9268920314   4691465000 
1853.2761609517   4518400000 
1871.8089225613   4454905000 
1890.5270117869   4117365000 
1909.4322819047   3991870000 
1928.5266047238   4105510000 
1947.811870771 3923317272.7273 
1967.2899894787 4042455882.3529 
1986.9628893735 3851379047.619 
2006.8325182673   3918260000 
2026.9008434499   3692755000 
2047.1698518844   3598090000 
2067.6415504033   3644095000 
2088.3179659073   3464660000 
2109.2011455664   3504530000 
2130.293157022   3386680000 
2151.5960885923   3384975000 
2173.1120494782   3291975000 
2194.843169973 3228033333.3333 
2216.7916016727   3103530000 
2238.9595176894   3051300000 
2261.3491128663   2998865000 
2283.962603995   2897740000 
2306.8022300349   2809220000 
2329.8702523353   2730020000 
2353.1689548586 2681073333.3333 
2376.7006444072   2600015000 
2400.4676508513   2536140000 
2424.4723273598 2477526666.6667 
2448.7170506334   2420265000 
2473.2042211397   2308310000 
2497.9362633511 2256772173.913 
2522.9156259846 2199149259.2593 
2548.1447822445   2151030000 
2573.6262300669 2103713333.3333 
2599.3624923676 2046183333.3333 
2625.3561172913   1993565000 
2651.6096784642   1940770000 
2678.1257752488   1889220000 
2704.9070330013   1840450000 
2731.9561033313 1781666666.6667 
2759.2756643647 1731113333.3333 
2786.8684210083   1670865000 
2814.7371052184 1637816666.6667 
2842.8844762706 1598396666.6667 
2871.3133210333 1551963333.3333 
2900.0264542436   1510600000 
2929.026718786   1462075000 
2958.3169859739   1423870000 
2987.9001558336   1378505000 
3017.779157392   1343420000 
3047.9569489659   1305485000 
3078.4365184556   1261010000 
3109.2208836401   1231605000 
3140.3130924765   1185270000 
3171.7162234013   1144320000 
3203.4333856353   1120105000 
3235.4677194916   1089330000 
3267.8223966866   1059350000 
3300.5006206534   1022295000 
3333.50562686    993110000 
3366.8406831286    968282000 
3400.5090899598    932200000 
3434.5141808594    902318000 
3468.859322668    881604500 
3503.5479158947    856313500 
3538.5833950537    829250000 
3573.9692290042    804871000 
3609.7089212942    783030800 
3645.8060105072 754078666.66667 
3682.2640706123    723869500 
3719.0867113184    752404000 
3756.2775784316    787480000 
3793.8403542159    777224000 
3831.778757758    809609000 
3870.0965453356    708293000 
3908.797510789    776302000 
3947.8854858969    709195000 
3987.3643407558    728563000 
4027.2379841634    699538500 
4067.510364005    674729000 
4108.1854676451    625902500 
4149.2673223215 635480333.33333 
4190.7599955447    613633500 
4232.6675955002    591354000 
4274.9942714552    574060500 
4317.7442141697    521958000 
4360.9216563114    536066000 
4404.5308728746    522985000 
4448.5761816033    500949000 
4493.0619434193    486740000 
4537.9925628535    471678500 
4583.3724884821    457975000 
4629.2062133669    440411000 
4675.4982755006    423457000 
4722.2532582556    412472500 
4769.4757908381 399630333.33333 
4817.1705487465    380552000 
4865.342254234    359875000 
4913.9956767763    356681000 
4963.1356335441 345807666.66667 
5012.7669898795    334405000 
5062.8946597783 324245666.66667 
5113.5236063761    312988000 
5164.6588424398 303073333.33333 
5216.3054308642    293205500 
5268.4684851729    283662000 
5321.1531700246 272745666.66667 
5374.3647017249    264065500 
5428.1083487421 255657333.33333 
5482.3894322295 246098666.66667 
5537.2133265518 236971666.66667 
5592.5854598173    229643000 
5648.5113144155    222242000 
5704.9964275597 214409666.66667 
5762.0463918353 206811666.66667 
5819.6668557536    197948000 
5877.8635243112 192162333.33333 
5936.6421595543    185539000 
5996.0085811498 179143666.66667 
6055.9686669613    173007000 
6116.5283536309 167044666.66667 
6177.6936371672 161435333.33333 
6239.4705735389 155993333.33333 
6301.8652792743 150768333.33333 
6364.883932067 145803333.33333 
6428.5327713877    140240750 
6492.8180991016 134309333.33333 
6557.7462800926    126111000 
6623.3237428935 126209333.33333 
6689.5569803225    121659750 
6756.4525501257    117371000 
6824.0170756269    113181500 
6892.2572463832 109117666.66667 
6961.179818847    105255000 
7030.7916170355    101058000 
7101.0995332059     97995025 
7172.1105285379 94416033.333333 
7243.8316338233     91193250 
7316.2699501615     88260400 
7389.4326496631     85286175 
7463.3269761598     82029500 
7537.9602459214     78946600 
7613.3398483806     76357800 
7689.4732468644     73868025 
7766.367979333     71125075 
7844.0316591264     68590200 
7922.4719757176     65969650 
8001.6966954748     63660475 
8081.7136624296     61372300 
8162.5307990539     59195075 
8244.1561070444     57027275 
8326.5976681148     54956100 
8409.863644796     52725020 
8493.9622812439     50749000 
8578.9019040564     49382950 
8664.6909230969     47347480 
8751.3378323279     47398750 
8838.8512106512     44543750 
8927.2397227577     43609300 
9016.5121199853     42345750 
9106.6772411851     41351940 
9197.744013597     38419075 
9289.721453733     38453300 
9382.6186682703     36956620 
9476.444854953     34493220 
9571.2093035025     34268300 
9666.9213965375     33146500 
9763.5906105029     31925320 
9861.226516608     30725920 
9959.838781774     29378860 
10059.437169592     28091200 
10160.031541288     27586350 
10261.631856701     26560950 
10364.248175268     25655750 
10467.89065702     24750700 
10572.56956359     23664400 
10678.295259226     22657550 
10785.078211819     21763850 
10892.928993937     20486900 
11001.858283876     20378350 
11111.876866715     19747650 
11222.995635382     18931400 
11335.225591736     18164000 
11448.577847653     17576000 
11563.06362613 16873666.666667 
11678.694262391     16205000 
11795.481205015     15694600 
11913.436017065 15054466.666667 
12032.570377236     14503150 
12152.896081008     14058300 
12274.425041818 13526733.333333 
12397.169292236     13018000 
12521.140985159     12527400 
12646.35239501     12073150 
12772.81591896     11389400 
12900.54407815 11112233.333333 
13029.549518932     10732050 
13159.845014121     10352100 
13291.443464262      9987845 
13424.357898905      9637520 
13558.601477894      9242630 
13694.187492673 8865243.3333333 
13831.129367599      8564605 
13969.440661275      8277970 
14109.135067888 7948996.6666667 
14250.226418567      7636150 
14392.728682753      7338440 
14536.65596958 7053387.6666667 
14682.022529276      6784690 
14828.842754569      6528900 
14977.131182115 6278266.6666667 
15126.902493936 6044833.3333333 
15278.171518875 5813356.6666667 
15430.953234064 5599783.3333333 
15585.262766404 5395623.3333333 
15741.115394068      5199790 
15898.526548009      5043490 
16057.511813489      4776320 
16218.086931624      4699455 
16380.26780094      4445830 
16544.07047895      4392555 
16709.511183739      4134830 
16876.606295577      4053130 
17045.372358532      3910555 
17215.826082118      3694435 
17387.984342939      3581980 
17561.864186368      3467970 
17737.482828232      3356505 
17914.857656514      3214990 
18094.006233079      3034935 
18274.94629541      2953530 
18457.695758364      2860540 
18642.272715948      2729170 
18828.695443107      2662480 
19016.982397539      2552820 
19207.152221514      2455100 
19399.223743729      2321490 
19593.215981166      2268210 
19789.148140978      2181175 
19987.039622388      2098260 
20186.910018612      2019260 
20388.779118798      1941735 
20592.666909986      1872165 
20798.593579086      1803640 
21006.579514877      1735225 
21216.645310025      1675665 
21428.811763126      1615575 
21643.099880757      1527960 
21859.530879564      1477900 
22078.12618836      1426700 
22298.907450244      1377910 
22521.896524746      1331060 
22747.115489993 1275306.6666667 
22974.586644893      1222235 
23204.332511342      1182155 
23436.375836456 1134173.3333333 
23670.73959482      1088410 
23907.446990769      1053340 
24146.521460676      1011547 
24387.986675283     971709.5 
24631.866542036 933787.66666667 
24878.185207456       896964 
25126.967059531 863098.33333333 
25378.236730126       834220 
25632.019097427 799338.66666667 
25888.339288402       772739 
26147.222681286 731624.33333333 
26408.694908098 712675.66666667 
26672.781857179       678032 
26939.509675751       663072 
27208.904772509 635039.33333333 
27480.993820234       602192 
27755.803758436       587388 
28033.361796021 567251.33333333 
28313.695413981 544102.33333333 
28596.832368121 516620.66666667 
28882.800691802       501424 
29171.62869872 481618.66666667 
29463.344985707 462792.66666667 
29757.978435564       444873 
30055.55821992 424491.33333333 
30356.113802119       410122 
30659.67494014 396036.66666667 
30966.271689541       381274 
31275.934406437       367190 
31588.693750501       353744 
31904.580688006     341322.4 
32223.626494886       326669 
32545.862759835       315016 
32871.321387434       300639 
33200.034601308     289623.5 
33532.034947321       279640 
33867.355296794       270090 
34206.028849762     257955.5 
34548.08913826       249274 
34893.570029642     240991.5 
35242.505729939     230441.5 
35594.930787238       220503 
35950.880095111     211163.5 
36310.388896062       204134 
36673.492785022     197873.5 
37040.227712872     188998.5 
37410.629990001     180571.5 
37784.736289901       174342 
38162.5836528     167356.5 
38544.209489328       160857 
38929.651584221     153801.5 
39318.948100064       148432 
39712.137581064       142321 
40109.258956875       135320 
40510.351546444       131918 
40915.455061908       126882 
41324.609612527       121222 
41737.855708653     117614.5 
42155.234265739     113281.5 
42576.786608396       109089 
43002.55447448     105232.5 
43432.580019225     100677.5 
43866.905819417 96912.233333333 
44305.574877612     92805.85 
44748.630626388     89632.25 
45196.116932652     86546.35 
45648.078101978      82868.6 
46104.558882998      78495.4 
46565.604471828     75819.65 
47031.260516546 73575.466666667 
47501.573121712     70566.95 
47976.588852929      68273.5 
48456.354741458 65540.133333333 
48940.918288873     62933.35 
49430.327471761 60463.233333333 
49924.630746479      58099.5 
50423.877053944 55846.333333333 
50928.115824483      53126.4 
51437.396982728 51656.066666667 
51951.770952555     49759.55 
52471.288662081 47863.766666667 
52996.001548702      45807.3 
53525.961564189     44034.85 
54061.221179831 42546.433333333 
54601.833391629      40714.5 
55147.851725545     39165.95 
55699.330242801 37909.366666667 
56256.323545229 36333.933333333 
56818.886780681 34718.133333333 
57387.075648488 33421.466666667 
57960.946404973      32081.5 
58540.555869022 30560.933333333 
59125.961427713 29416.566666667 
59717.22104199        28439 
60314.39325241      27336.6 
60917.537184934 26287.066666667 
61526.712556783 25287.266666667 
62141.979682351      24326.4 
62763.399479174 23260.966666667 
63391.033473966 22559.533333333 
64024.943808706 21560.971428571 
64665.193246793      20813.4 
65311.845179261      20067.5 
65964.963631053     19121.15 
66624.613267364      18446.3 
67290.859400038     17693.65 
67963.767994038      16987.7 
68643.405673978      16404.9 
69329.839730718      15848.5 
70023.138128025      15143.7 
70723.369509305      14471.2 
71430.603204399      13998.7 
72144.909236443     13532.65 
72866.358328807     12961.35 
73595.021912095     12400.95 
74330.972131216      11658.6 
75074.281852528     11389.05 
75825.024671053      11041.5 
76583.274917764      10701.9 
77349.107666942     10245.35 
78122.598743611     9856.385 
78903.824731047     9465.165 
79692.862978358      9092.84 
80489.791608141      8738.53 
81294.689524223       8371.6 
82107.636419465      8080.35 
82928.712783659       7774.4 
83757.999911496      7482.85 
84595.579910611      7138.03 
85441.535709717     6811.555 
86295.951066814     6529.405 
87158.910577482      6278.52 
88030.499683257      6101.75 
88910.80468009     5886.035 
89799.912726891      5629.99 
90697.91185416      5386.55 
91604.890972701     5201.805 
92520.939882428      4981.83 
93446.149281253      4739.87 
94380.610774065      4613.16 
95324.416881806      4423.63 
96277.661050624     4244.165 
97240.43766113       4073.2 
98212.842037741      3907.91 
99194.970458119      3786.38 
100186.9201627      3696.38 
199060.83304441      230.917 
399467.9878358      14.2374 
594753.39981818       2.7878 
793700.71765891     0.876251 
997811.18987739     0.356948 
1193529.3359837     0.171316 
1399507.0114645    0.0920798 
