#  WAVELENGTH	        FLUX	
#  (ANGSTROM)	(ERG/CM2/S/A)	
############	############	
        90.9     0.016902 
    92.72709    0.0420213 
95.53681355409    0.0978945 
97.457103506527     0.163878 
99.415991287008     0.291479 
101.41425271188     0.584143 
103.45267919139     0.962942 
105.53207804313      1.55927 
107.6532728118      2.67781 
109.81710359532       5.1996 
113.14467165136       11.968 
117.73879903054      27.1997 
120.10534889105      55.5659 
123.7446610678      108.358 
126.23192875526      165.065 
127.49424804281      211.148 
130.05688242847      302.464 
131.35745125276      416.256 
132.67102576529      531.796 
135.33771338317      812.393 
139.43858143639      1321.37 
142.24129692326      2183.34 
146.55135046134      3622.15 
150.99200293167      6062.28 
154.02694219059      10175.5 
158.69411256591      15542.8 
161.88386422848      23145.9 
165.13772989948      35805.4 
170.14156825316      54585.6 
171.84298393569        73677 
175.2970279128       102492 
178.82049817385       140612 
180.60870315558       156079 
186.0813274699       233632 
189.82156215205       345781 
193.6369755513       442922 
197.52907875988       620693 
201.49941324296       788322 
203.51440737539      1001240 
209.68109743327      1454630 
216.03464436659      2100760 
218.19499081026      2642070 
222.58071012555      3176540 
224.8065172268      3925330 
229.32512822306    287312000 
233.93456330034   4554390000 
238.63664802268  21829400000 
245.86757709442  63017600000 
250.80951539401 123003000000 
255.85078665343 133317000000 
258.40929451997 185824000000 
263.60332133982 276856000000 
266.23935455322 282087000000 
271.59076557974 315487000000 
277.04973996789 286702000000 
282.61843974125 364035000000 
288.29907038004 415917000000 
294.09388169468 364811000000 
300.00516871675 214655000000 
306.03527260795 232268000000 
315.30844740325 190418000000 
324.86260866801 200334000000 
334.70627057326 161803000000 
344.8482052779 158439000000 
355.29745074603 240935000000 
362.43892950602 314983000000 
373.42119150899 339317000000 
384.7362270329 286109000000 
392.46942519626 360710000000 
404.36164124913 416064000000 
412.48931023824 417776000000 
420.78034537403 393687000000 
429.23803031605 378503000000 
437.8657147254 423472000000 
446.66681559138 423310000000 
455.64481858477 395834000000 
469.4513122327 398253000000 
478.88728360858 412050000000 
488.51291800911 382928000000 
498.3320276611 410110000000 
503.31534793771 375073000000 
508.34850141708 401170000000 
518.56630629557 386804000000 
528.98948905211 371044000000 
539.62217778206 329199000000 
545.01839955988 293252000000 
555.97326939103 339140000000 
567.14833210579 344414000000 
578.54801358112 338127000000 
584.33349371693 334080000000 
596.07859694064 314359000000 
608.05977673914 282401000000 
614.14037450653 305962000000 
626.48459603412 284907000000 
639.0769364144 296887000000 
645.46770577855 282855000000 
651.92238283633 267579000000 
658.44160666469 279439000000 
671.67628295866 273553000000 
678.39304578824 254922000000 
692.02874600859 262801000000 
698.94903346867 243710000000 
712.99790904139 249059000000 
720.12788813181 246719000000 
734.60245868325 241146000000 
741.94848327009 232958000000 
749.36796810279 225017000000 
764.43026426165 210984000000 
772.07456690427 215498000000 
779.79531257331 204876000000 
787.59326569905 205149000000 
803.4238903396 203537000000 
811.45812924299 199236000000 
819.57271053542 195410000000 
827.76843764078 183474000000 
844.40658323736 186370000000 
852.85064906973 178938000000 
861.37915556043 178863000000 
869.99294711603 175792000000 
878.69287658719 170553000000 
887.47980535306 166993000000 
896.3546034066 161713000000 
914.37133093507 123716000000 
923.51504424442 188215000000 
932.75019468686 223468000000 
942.07769663373 243687000000 
951.49847360007 259904000000 
961.01345833607 268138000000 
970.62359291943 226199000000 
980.32982884862 248499000000 
990.13312713711 228886000000 
1000.0344584085 234253000000 
1010.0348029926 229715000000 
1020.1351510225 206039000000 
1030.3365025327 225737000000 
1040.639867558 222828000000 
1051.0462662336 217520000000 
1061.556728896 208320000000 
1072.1722961849 206865000000 
1082.8940191468 195350000000 
1093.7229593382 196983000000 
1104.6601889316 189098500000 
1115.7067908209 180920000000 
1126.8638587291 179942000000 
1138.1324973164 176057000000 
1149.5138222896 170556000000 
1161.0089605125 164421000000 
1172.6190501176 155369000000 
1184.3452406188 155636500000 
1196.188693025 150256000000 
1208.1505799552 130332000000 
1220.2320857548 143444000000 
1232.4344066123 136890000000 
1244.7587506785 133496000000 
1257.2063381852 130629000000 
1269.7784015671 127647000000 
1282.4761855828 123609500000 
1295.3009474386 118534000000 
1308.253956913 116089000000 
1321.3364964821 113033000000 
1334.5498614469 109938500000 
1347.8953600614 105009000000 
1361.374313662 101078000000 
1374.9880567986  97516950000 
1388.7379373666  95040800000 
1402.6253167403  92141700000 
1416.6515699077  90270500000 
1430.8180856068 88163029411.765 
1445.1262664628 84820607692.308 
1459.5775291275  82615600000 
1474.1733044187  81193700000 
1488.9150374629  78836100000 
1503.8041878376 76565281818.182 
1518.8422297159  74546700000 
1534.0306520131  70120250000 
1549.3709585332  66967900000 
1564.8646681186  67550900000 
1580.5133147997  64908500000 
1596.3184479477  62668900000 
1612.2816324272  60882750000 
1628.4044487515  58859800000 
1644.688493239  56603100000 
1661.1353781714 55843786363.636 
1677.7467319531  54623700000 
1694.5241992726  53112250000 
1711.4694412654  50446550000 
1728.584135678  49389650000 
1745.8699770348  47949400000 
1763.3286768051  46734050000 
1780.9619635732  45064950000 
1798.7715832089  43425850000 
1816.759299041  42295600000 
1834.9268920314  41188600000 
1853.2761609517  39740350000 
1871.8089225613  38361150000 
1890.5270117869  37114600000 
1909.4322819047  35764800000 
1928.5266047238  34646850000 
1947.811870771 33386209090.909 
1967.2899894787 32360123529.412 
1986.9628893735 31307857142.857 
2006.8325182673  30286550000 
2026.9008434499  29244100000 
2047.1698518844  22427550000 
2067.6415504033  23072305000 
2088.3179659073  26213450000 
2109.2011455664  25763550000 
2130.293157022  24941200000 
2151.5960885923  24242900000 
2173.1120494782  23592900000 
2194.843169973 22795066666.667 
2216.7916016727  22138200000 
2238.9595176894  21199150000 
2261.3491128663  20834100000 
2283.962603995  19858300000 
2306.8022300349  19318200000 
2329.8702523353  18764450000 
2353.1689548586  18080000000 
2376.7006444072  17185950000 
2400.4676508513  16896550000 
2424.4723273598 16337966666.667 
2448.7170506334  15744750000 
2473.2042211397  15121300000 
2497.9362633511 14382252173.913 
2522.9156259846  14166200000 
2548.1447822445  13731900000 
2573.6262300669 13254066666.667 
2599.3624923676  12740200000 
2625.3561172913  12326850000 
2651.6096784642 11919933333.333 
2678.1257752488  11533950000 
2704.9070330013  11171000000 
2731.9561033313  10657700000 
2759.2756643647 10336966666.667 
2786.8684210083  10013105000 
2814.7371052184 9703296666.6667 
2842.8844762706   9347760000 
2871.3133210333 9004806666.6667 
2900.0264542436   8733910000 
2929.026718786   8422280000 
2958.3169859739   8119370000 
2987.9001558336   7829395000 
3017.779157392   7549460000 
3047.9569489659   7285990000 
3078.4365184556   7046440000 
3109.2208836401   6805225000 
3140.3130924765   6502530000 
3171.7162234013   6284700000 
3203.4333856353   6036335000 
3235.4677194916   5878960000 
3267.8223966866   5680455000 
3300.5006206534   5442400000 
3333.50562686   5261960000 
3366.8406831286   5098540000 
3400.5090899598   4884745000 
3434.5141808594   4732520000 
3468.859322668   4588040000 
3503.5479158947   4402870000 
3538.5833950537   4225115000 
3573.9692290042   4097590000 
3609.7089212942   3944652000 
3645.8060105072 3456776666.6667 
3682.2640706123   3364480000 
3719.0867113184   3339385000 
3756.2775784316   3340455000 
3793.8403542159   3256890000 
3831.778757758   3219920000 
3870.0965453356   2985790000 
3908.797510789   3054555000 
3947.8854858969   2874250000 
3987.3643407558   2850175000 
4027.2379841634   2733115000 
4067.510364005   2634710000 
4108.1854676451   2495625000 
4149.2673223215 2445593333.3333 
4190.7599955447   2328300000 
4232.6675955002   2261490000 
4274.9942714552   2183955000 
4317.7442141697   2044180000 
4360.9216563114   2037345000 
4404.5308728746   1970355000 
4448.5761816033 1888636666.6667 
4493.0619434193   1811925000 
4537.9925628535   1741870000 
4583.3724884821   1697965000 
4629.2062133669   1628520000 
4675.4982755006   1543815000 
4722.2532582556   1517605000 
4769.4757908381   1458990000 
4817.1705487465   1393245000 
4865.342254234 1327736666.6667 
4913.9956767763   1298905000 
4963.1356335441   1250930000 
5012.7669898795   1204885000 
5062.8946597783 1161023333.3333 
5113.5236063761   1118935000 
5164.6588424398 1078913333.3333 
5216.3054308642   1040490000 
5268.4684851729 1003882333.3333 
5321.1531700246    962027000 
5374.3647017249    921608500 
5428.1083487421    896942000 
5482.3894322295    860521000 
5537.2133265518    825789000 
5592.5854598173    798394000 
5648.5113144155 769161666.66667 
5704.9964275597 698446666.66667 
5762.0463918353 672599333.33333 
5819.6668557536 652410333.33333 
5877.8635243112    637570000 
5936.6421595543 626233666.66667 
5996.0085811498 610347333.33333 
6055.9686669613    588887000 
6116.5283536309 567125333.33333 
6177.6936371672 546653333.33333 
6239.4705735389 527569666.66667 
6301.8652792743 507815666.66667 
6364.883932067    489572000 
6428.5327713877    470875750 
6492.8180991016 448998333.33333 
6557.7462800926 428317333.33333 
6623.3237428935 421199333.33333 
6689.5569803225    403706250 
6756.4525501257    389146000 
6824.0170756269    373016750 
6892.2572463832    359827000 
6961.179818847    346273000 
7030.7916170355 333190333.33333 
7101.0995332059    320230000 
7172.1105285379 308615333.33333 
7243.8316338233    297855000 
7316.2699501615 287102666.66667 
7389.4326496631    276830250 
7463.3269761598    265645750 
7537.9602459214    254095000 
7613.3398483806    246142000 
7689.4732468644    237655250 
7766.367979333    228411500 
7844.0316591264    219598250 
7922.4719757176    211210500 
8001.6966954748    203219250 
8081.7136624296    195602000 
8162.5307990539    184320000 
8244.1561070444    174501250 
8326.5976681148    168362000 
8409.863644796    162093800 
8493.9622812439    156495500 
8578.9019040564    151925250 
8664.6909230969    146880600 
8751.3378323279    143082250 
8838.8512106512    137511000 
8927.2397227577    132914000 
9016.5121199853    128150750 
9106.6772411851    123937800 
9197.744013597    117442750 
9289.721453733    114432800 
9382.6186682703    110323400 
9476.444854953    104401280 
9571.2093035025    102066750 
9666.9213965375     98437380 
9763.5906105029     94490500 
9861.226516608     90955980 
9959.838781774 87302406.666667 
10059.437169592     83080000 
10160.031541288     81291450 
10261.631856701     78253900 
10364.248175268     75182700 
10467.89065702     72608400 
10572.56956359     69339100 
10678.295259226     66241700 
10785.078211819     63863000 
10892.928993937     60637650 
11001.858283876     59490850 
11111.876866715     57451200 
11222.995635382     55020300 
11335.225591736     52696450 
11448.577847653     50927950 
11563.06362613 48563766.666667 
11678.694262391     46819050 
11795.481205015     45291600 
11913.436017065     43469100 
12032.570377236     41737250 
12152.896081008     40414100 
12274.425041818     38834300 
12397.169292236     37325850 
12521.140985159 35895066.666667 
12646.35239501     34527700 
12772.81591896 32847666.666667 
12900.54407815 31746533.333333 
13029.549518932     30573300 
13159.845014121 29456033.333333 
13291.443464262     28386150 
13424.357898905 27368833.333333 
13558.601477894 26203933.333333 
13694.187492673 25101566.666667 
13831.129367599     24224500 
13969.440661275 23388466.666667 
14109.135067888     22429800 
14250.226418567 21520633.333333 
14392.728682753 20657333.333333 
14536.65596958 19864016.666667 
14682.022529276 19016866.666667 
14828.842754569 18349633.333333 
14977.131182115 17640333.333333 
15126.902493936     16967200 
15278.171518875     16320600 
15430.953234064 15700966.666667 
15585.262766404 15109566.666667 
15741.115394068 14550366.666667 
15898.526548009     13965200 
16057.511813489     13400500 
16218.086931624     12954450 
16380.26780094     12439400 
16544.07047895     12066900 
16709.511183739     11452550 
16876.606295577     11112100 
17045.372358532     10731950 
17215.826082118     10191950 
17387.984342939      9792375 
17561.864186368      9471040 
17737.482828232      9160385 
17914.857656514      8764690 
18094.006233079      8325975 
18274.94629541      8035415 
18457.695758364      7782430 
18642.272715948      7427240 
18828.695443107      7228430 
19016.982397539      6933345 
19207.152221514      6653040 
19399.223743729      6332365 
19593.215981166      6134910 
19789.148140978      5894520 
19987.039622388      5665690 
20186.910018612      5447860 
20388.779118798      5240240 
20592.666909986      5042405 
20798.593579086      4854195 
21006.579514877      4674180 
21216.645310025      4502850 
21428.811763126      4338985 
21643.099880757 4117006.6666667 
21859.530879564      3960990 
22078.12618836      3821365 
22298.907450244      3687805 
22521.896524746      3560005 
22747.115489993      3409860 
22974.586644893      3266285 
23204.332511342      3156470 
23436.375836456 3025743.3333333 
23670.73959482      2901285 
23907.446990769      2806500 
24146.521460676 2693526.6666667 
24387.986675283      2585845 
24631.866542036      2483730 
24878.185207456      2386430 
25126.967059531 2294046.6666667 
25378.236730126      2205835 
25632.019097427 2121453.3333333 
25888.339288402      2041585 
26147.222681286 1948186.6666667 
26408.694908098 1878996.6666667 
26672.781857179      1805845 
26939.509675751 1744673.3333333 
27208.904772509 1669753.3333333 
27480.993820234 1594253.3333333 
27755.803758436      1542510 
28033.361796021 1488786.6666667 
28313.695413981 1427253.3333333 
28596.832368121      1363340 
28882.800691802 1313466.6666667 
29171.62869872 1260803.3333333 
29463.344985707 1210776.6666667 
29757.978435564 1163173.3333333 
30055.55821992 1113906.6666667 
30356.113802119      1072790 
30659.67494014 1033733.3333333 
30966.271689541       994646 
31275.934406437 957363.33333333 
31588.693750501       921803 
31904.580688006       888989 
32223.626494886       850279 
32545.862759835       819528 
32871.321387434       785576 
33200.034601308     753501.5 
33532.034947321       727030 
33867.355296794       701832 
34206.028849762       669831 
34548.08913826       646964 
34893.570029642     625161.5 
35242.505729939       597434 
35594.930787238       571223 
35950.880095111       546435 
36310.388896062       528681 
36673.492785022     511720.5 
37040.227712872       488816 
37410.629990001       467406 
37784.736289901       450155 
38162.5836528     431702.5 
38544.209489328     414188.5 
38929.651584221     397478.5 
39318.948100064       381754 
39712.137581064     366586.5 
40109.258956875       349795 
40510.351546444       338794 
40915.455061908     325832.5 
41324.609612527     312959.5 
41737.855708653       301695 
42155.234265739     290486.5 
42576.786608396     279765.5 
43002.55447448     269541.5 
43432.580019225       259161 
43866.905819417 248120.66666667 
44305.574877612       237278 
44748.630626388       228967 
45196.116932652     220992.5 
45648.078101978 211527.66666667 
46104.558882998       200754 
46565.604471828       194694 
47031.260516546 187553.66666667 
47501.573121712     179793.5 
47976.588852929     173894.5 
48456.354741458 166868.66666667 
48940.918288873       160166 
49430.327471761 153814.66666667 
49924.630746479       147752 
50423.877053944 142006.66666667 
50928.115824483     135671.5 
51437.396982728       131303 
51951.770952555     126333.5 
52471.288662081 121603.33333333 
52996.001548702 116206.66666667 
53525.961564189       111928 
54061.221179831       107859 
54601.833391629 103207.33333333 
55147.851725545     99515.35 
55699.330242801 95998.833333333 
56256.323545229      91973.7 
56818.886780681 88143.066666667 
57387.075648488      84534.8 
57960.946404973 81100.766666667 
58540.555869022 77383.333333333 
59125.961427713 74662.733333333 
59717.22104199      71788.4 
60314.39325241 68981.733333333 
60917.537184934      66310.6 
61526.712556783 63767.066666667 
62141.979682351 61343.233333333 
62763.399479174 58927.833333333 
63391.033473966      56832.8 
64024.943808706 54296.314285714 
64665.193246793      52398.9 
65311.845179261     50504.85 
65964.963631053     48103.95 
66624.613267364      46391.7 
67290.859400038      44660.5 
67963.767994038     42696.15 
68643.405673978      41220.3 
69329.839730718      39813.5 
70023.138128025     38025.85 
70723.369509305     36337.55 
71430.603204399      35128.8 
72144.909236443     33976.05 
72866.358328807     32507.05 
73595.021912095     31115.15 
74330.972131216     29304.65 
75074.281852528      28539.1 
75825.024671053      27656.4 
76583.274917764     26799.25 
77349.107666942      25704.9 
78122.598743611     24665.65 
78903.824731047     23678.55 
79692.862978358      22740.5 
80489.791608141      21847.8 
81294.689524223      20993.4 
82107.636419465     20189.95 
82928.712783659      19419.8 
83757.999911496     18686.15 
84595.579910611 17818.466666667 
85441.535709717      16997.3 
86295.951066814      16360.3 
87158.910577482      15693.7 
88030.499683257      15214.5 
88910.80468009     14672.45 
89799.912726891 14029.533333333 
90697.91185416     13419.05 
91604.890972701      12955.2 
92520.939882428 12404.133333333 
93446.149281253     11854.15 
94380.610774065      11481.2 
95324.416881806 11006.733333333 
96277.661050624     10554.95 
97240.43766113 10127.576666667 
98212.842037741     9720.115 
99194.970458119     9409.255 
100186.9201627      9184.08 
199060.83304441      563.334 
399467.9878358      34.0046 
594753.39981818      6.56683 
793700.71765891      2.04376 
997811.18987739     0.826432 
1193529.3359837     0.394389 
1399507.0114645     0.211027 
