#  WAVELENGTH	        FLUX	
#  (ANGSTROM)	(ERG/CM2/S/A)	
############	############	
437.8657147254  1.96093E-24 
446.66681559138  9.69214E-24 
455.64481858477  3.83513E-23 
469.4513122327  1.65666E-22 
478.88728360858  6.70528E-22 
488.51291800911  2.55568E-21 
498.3320276611  9.19359E-21 
503.31534793771   2.5667E-20 
508.34850141708  5.94419E-20 
518.56630629557  1.51305E-19 
528.98948905211   4.6943E-19 
539.62217778206  1.37127E-18 
545.01839955988  3.88699E-18 
555.97326939103  1.05269E-17 
567.14833210579  2.74541E-17 
578.54801358112  6.83344E-17 
584.33349371693  1.68084E-16 
596.07859694064  3.95975E-16 
608.05977673914  9.04852E-16 
614.14037450653  2.00861E-15 
626.48459603412  4.33758E-15 
639.0769364144  9.12946E-15 
645.46770577855   1.8742E-14 
651.92238283633   3.2752E-14 
658.44160666469  5.27368E-14 
671.67628295866  1.02214E-13 
678.39304578824  1.93943E-13 
692.02874600859  3.60605E-13 
698.94903346867  6.57541E-13 
712.99790904139  1.24661E-12 
720.12788813181  2.18865E-12 
734.60245868325  3.58078E-12 
741.94848327009  6.09406E-12 
749.36796810279  1.02103E-11 
764.43026426165   1.6853E-11 
772.07456690427  2.74181E-11 
779.79531257331  4.39954E-11 
787.59326569905  6.96208E-11 
803.4238903396  1.08887E-10 
811.45812924299  1.68167E-10 
819.57271053542  2.56661E-10 
827.76843764078  3.87368E-10 
844.40658323736  5.78267E-10 
852.85064906973  8.54133E-10 
861.37915556043   1.24878E-9 
869.99294711603   1.80781E-9 
878.69287658719   2.59316E-9 
887.47980535306    3.6855E-9 
896.3546034066   5.19172E-9 
914.37133093507   4.39379E-5 
923.51504424442  0.000164214 
932.75019468686  0.000225226 
942.07769663373  0.000328384 
951.49847360007  0.000474742 
961.01345833607  0.000665611 
970.62359291943  0.000849108 
980.32982884862    0.0012522 
990.13312713711   0.00171469 
1000.0344584085   0.00232926 
1010.0348029926   0.00298645 
1020.1351510225   0.00371056 
1030.3365025327    0.0054472 
1040.639867558   0.00751891 
1051.0462662336   0.00941228 
1061.556728896    0.0127953 
1072.1722961849    0.0165841 
1082.8940191468    0.0219969 
1093.7229593382    0.0274599 
1104.6601889316    0.0698738 
1115.7067908209     0.130124 
1126.8638587291     0.193541 
1138.1324973164     0.244525 
1149.5138222896     0.273266 
1161.0089605125     0.310801 
1172.6190501176     0.365699 
1184.3452406188    0.3491195 
1196.188693025     0.268714 
1208.1505799552       0.1847 
1220.2320857548     0.378608 
1232.4344066123      0.68824 
1244.7587506785      1.43346 
1257.2063381852      2.43498 
1269.7784015671      3.35983 
1282.4761855828      5.77511 
1295.3009474386      9.16816 
1308.253956913      11.0898 
1321.3364964821      13.9038 
1334.5498614469      18.2173 
1347.8953600614      23.1391 
1361.374313662      28.7093 
1374.9880567986     34.53055 
1388.7379373666      42.9498 
1402.6253167403      54.3282 
1416.6515699077       64.262 
1430.8180856068 80.565570588235 
1445.1262664628 94.587538461538 
1459.5775291275      109.118 
1474.1733044187     130.8085 
1488.9150374629      166.503 
1503.8041878376 196.51831818182 
1518.8422297159      245.173 
1534.0306520131     329.9995 
1549.3709585332      382.991 
1564.8646681186      426.945 
1580.5133147997      543.603 
1596.3184479477      610.192 
1612.2816324272      799.611 
1628.4044487515       1084.7 
1644.688493239      1401.25 
1661.1353781714 2040.7163636364 
1677.7467319531      2907.98 
1694.5241992726       3780.7 
1711.4694412654     7675.965 
1728.584135678     29257.45 
1745.8699770348      76487.8 
1763.3286768051      85729.1 
1780.9619635732       192893 
1798.7715832089       196340 
1816.759299041       188624 
1834.9268920314     179877.5 
1853.2761609517     280478.5 
1871.8089225613       346677 
1890.5270117869       396669 
1909.4322819047     455516.5 
1928.5266047238       386619 
1947.811870771 630245.81818182 
1967.2899894787 600763.70588235 
1986.9628893735 629134.57142857 
2006.8325182673       602025 
2026.9008434499     854090.5 
2047.1698518844     884924.5 
2067.6415504033      1144258 
2088.3179659073      1108570 
2109.2011455664      1220995 
2130.293157022      1260920 
2151.5960885923      1282405 
2173.1120494782      1370540 
2194.843169973      1508960 
2216.7916016727      1757895 
2238.9595176894      1660885 
2261.3491128663      1428510 
2283.962603995 1703923.3333333 
2306.8022300349      1733685 
2329.8702523353      1225405 
2353.1689548586 1509213.3333333 
2376.7006444072       999058 
2400.4676508513      1244805 
2424.4723273598      2132950 
2448.7170506334      2278255 
2473.2042211397 1621643.3333333 
2497.9362633511 1599782.3913043 
2522.9156259846 1317463.2592593 
2548.1447822445      1940935 
2573.6262300669 2194226.6666667 
2599.3624923676 1839396.6666667 
2625.3561172913      3139885 
2651.6096784642      3639590 
2678.1257752488      3579435 
2704.9070330013 3053696.6666667 
2731.9561033313      2586990 
2759.2756643647      3045660 
2786.8684210083       818282 
2814.7371052184 3743226.6666667 
2842.8844762706 2602176.6666667 
2871.3133210333 4001703.3333333 
2900.0264542436      4766910 
2929.026718786      4527515 
2958.3169859739      4581370 
2987.9001558336      4600030 
3017.779157392      4725480 
3047.9569489659      4898970 
3078.4365184556      4661740 
3109.2208836401      4825905 
3140.3130924765      4797475 
3171.7162234013      4722780 
3203.4333856353      4976150 
3235.4677194916      5489110 
3267.8223966866      6009295 
3300.5006206534      5928335 
3333.50562686      5832310 
3366.8406831286      5293120 
3400.5090899598      5836625 
3434.5141808594      5869100 
3468.859322668      6168395 
3503.5479158947      6280895 
3538.5833950537      6369300 
3573.9692290042      5970400 
3609.7089212942      6295328 
3645.8060105072 6758393.3333333 
3682.2640706123      6647060 
3719.0867113184      6146615 
3756.2775784316      7124240 
3793.8403542159      6832615 
3831.778757758      7399810 
3870.0965453356      6937290 
3908.797510789      6347445 
3947.8854858969      6640480 
3987.3643407558      8217855 
4027.2379841634      8241650 
4067.510364005      8242480 
4108.1854676451      8175565 
4149.2673223215 8329343.3333333 
4190.7599955447      8025595 
4232.6675955002      7884570 
4274.9942714552      6965065 
4317.7442141697      7845015 
4360.9216563114      8083590 
4404.5308728746      8364045 
4448.5761816033      8523030 
4493.0619434193      8633665 
4537.9925628535      8653960 
4583.3724884821      8653585 
4629.2062133669 8676203.3333333 
4675.4982755006      8641245 
4722.2532582556      8645565 
4769.4757908381 8609376.6666667 
4817.1705487465      8479750 
4865.342254234 8179086.6666667 
4913.9956767763      8323050 
4963.1356335441      8290870 
5012.7669898795      8282980 
5062.8946597783 8266833.3333333 
5113.5236063761      8129485 
5164.6588424398 7802166.6666667 
5216.3054308642      8063760 
5268.4684851729 7980636.6666667 
5321.1531700246      7915430 
5374.3647017249      7850560 
5428.1083487421      7827390 
5482.3894322295      7815940 
5537.2133265518 7724323.3333333 
5592.5854598173      7674685 
5648.5113144155 7637623.3333333 
5704.9964275597      7567530 
5762.0463918353 7499956.6666667 
5819.6668557536 7418156.6666667 
5877.8635243112 7281756.6666667 
5936.6421595543 7259273.3333333 
5996.0085811498 7171573.3333333 
6055.9686669613      7092890 
6116.5283536309 6951626.6666667 
6177.6936371672      6915600 
6239.4705735389 6831033.3333333 
6301.8652792743 6753533.3333333 
6364.883932067 6673826.6666667 
6428.5327713877      6554890 
6492.8180991016 6444696.6666667 
6557.7462800926 6129596.6666667 
6623.3237428935      6341760 
6689.5569803225    6255792.5 
6756.4525501257      6164520 
6824.0170756269      6074185 
6892.2572463832 5986336.6666667 
6961.179818847      5896880 
7030.7916170355      5810800 
7101.0995332059      5718055 
7172.1105285379 5626913.3333333 
7243.8316338233    5550972.5 
7316.2699501615 5469153.3333333 
7389.4326496631      5377430 
7463.3269761598      5291630 
7537.9602459214      5203775 
7613.3398483806 5119536.6666667 
7689.4732468644      5043330 
7766.367979333    4960297.5 
7844.0316591264      4876500 
7922.4719757176      4786215 
8001.6966954748      4706290 
8081.7136624296    4626997.5 
8162.5307990539      4537395 
8244.1561070444      4472575 
8326.5976681148    4382497.5 
8409.863644796      4301094 
8493.9622812439    4122437.5 
8578.9019040564    4144877.5 
8664.6909230969      4007806 
8751.3378323279      3981580 
8838.8512106512    3909302.5 
8927.2397227577      3834192 
9016.5121199853    3767567.5 
9106.6772411851      3705310 
9197.744013597      3605460 
9289.721453733      3566384 
9382.6186682703      3486178 
9476.444854953      3397182 
9571.2093035025    3352607.5 
9666.9213965375      3289958 
9763.5906105029      3222956 
9861.226516608      3156084 
9959.838781774 3093420.6666667 
10059.437169592      3016240 
10160.031541288      2972050 
10261.631856701      2911655 
10364.248175268      2853880 
10467.89065702      2796290 
10572.56956359      2720550 
10678.295259226      2654800 
10785.078211819      2595825 
10892.928993937      2526815 
11001.858283876      2507615 
11111.876866715      2459015 
11222.995635382 2399623.3333333 
11335.225591736      2341495 
11448.577847653      2301195 
11563.06362613 2244033.3333333 
11678.694262391      2193275 
11795.481205015      2146445 
11913.436017065      2098030 
12032.570377236      2053545 
12152.896081008      2022825 
12274.425041818 1977406.6666667 
12397.169292236      1934700 
12521.140985159 1892796.6666667 
12646.35239501      1852250 
12772.81591896 1789706.6666667 
12900.54407815 1767533.3333333 
13029.549518932      1729635 
13159.845014121      1694110 
13291.443464262      1660605 
13424.357898905 1627923.3333333 
13558.601477894      1588560 
13694.187492673 1551453.3333333 
13831.129367599      1521545 
13969.440661275 1491916.6666667 
14109.135067888 1457103.3333333 
14250.226418567 1424113.3333333 
14392.728682753 1390146.6666667 
14536.65596958 1360949.6666667 
14682.022529276 1330386.6666667 
14828.842754569 1298133.3333333 
14977.131182115      1266120 
15126.902493936      1244210 
15278.171518875      1216400 
15430.953234064 1188686.6666667 
15585.262766404      1160420 
15741.115394068 1127143.3333333 
15898.526548009 1103535.7142857 
16057.511813489      1069040 
16218.086931624      1046965 
16380.26780094      1006710 
16544.07047895       988642 
16709.511183739       937679 
16876.606295577       920288 
17045.372358532       891391 
17215.826082118     845615.5 
17387.984342939       822178 
17561.864186368       799058 
17737.482828232     776153.5 
17914.857656514       746317 
18094.006233079     706402.5 
18274.94629541       690356 
18457.695758364       671124 
18642.272715948       636689 
18828.695443107     626903.5 
19016.982397539       605308 
19207.152221514     582871.5 
19399.223743729     552141.5 
19593.215981166       541653 
19789.148140978       522916 
19987.039622388       504927 
20186.910018612       487016 
20388.779118798     470528.5 
20592.666909986       454022 
20798.593579086       438694 
21006.579514877     424071.5 
21216.645310025     409864.5 
21428.811763126     396226.5 
21643.099880757       375319 
21859.530879564       364444 
22078.12618836     352872.5 
22298.907450244     341547.5 
22521.896524746     330588.5 
22747.115489993       317779 
22974.586644893     305563.5 
23204.332511342     296013.5 
23436.375836456 284771.33333333 
23670.73959482       273870 
23907.446990769     265690.5 
24146.521460676 255736.66666667 
24387.986675283     246223.5 
24631.866542036 237072.66666667 
24878.185207456       228654 
25126.967059531       220380 
25378.236730126     212492.5 
25632.019097427       204843 
25888.339288402       197791 
26147.222681286 188519.66666667 
26408.694908098 182837.66666667 
26672.781857179       176398 
26939.509675751       170845 
27208.904772509 163979.33333333 
27480.993820234 157054.33333333 
27755.803758436       152259 
28033.361796021       147284 
28313.695413981 141567.33333333 
28596.832368121       135656 
28882.800691802       130946 
29171.62869872 125989.33333333 
29463.344985707 121291.33333333 
29757.978435564 116793.33333333 
30055.55821992       112152 
30356.113802119       108253 
30659.67494014       104484 
30966.271689541 100706.93333333 
31275.934406437 97141.733333333 
31588.693750501      93743.6 
31904.580688006     90582.44 
32223.626494886        86840 
32545.862759835      83862.4 
32871.321387434        80628 
33200.034601308      77394.7 
33532.034947321      74832.7 
33867.355296794     72329.15 
34206.028849762        69221 
34548.08913826      66977.2 
34893.570029642      64825.6 
35242.505729939      62079.1 
35594.930787238      59470.9 
35950.880095111     57022.45 
36310.388896062      55246.4 
36673.492785022     53535.25 
37040.227712872     51316.55 
37410.629990001     49164.45 
37784.736289901     47380.55 
38162.5836528      45525.9 
38544.209489328      43757.4 
38929.651584221     42072.15 
39318.948100064      40473.2 
39712.137581064     38931.95 
40109.258956875      37290.9 
40510.351546444      36093.8 
40915.455061908        34774 
41324.609612527     33489.05 
41737.855708653     32284.95 
42155.234265739     31147.35 
42576.786608396      30039.4 
43002.55447448     28964.75 
43432.580019225      27906.7 
43866.905819417      26715.2 
44305.574877612      25568.7 
44748.630626388     24702.25 
45196.116932652     23874.95 
45648.078101978 22898.666666667 
46104.558882998      21879.1 
46565.604471828     21231.85 
47031.260516546 20418.533333333 
47501.573121712     19608.45 
47976.588852929     18987.55 
48456.354741458 18247.333333333 
48940.918288873      17541.1 
49430.327471761      16869.6 
49924.630746479      16228.7 
50423.877053944 15618.466666667 
50928.115824483     15012.55 
51437.396982728 14484.466666667 
51951.770952555      13954.7 
52471.288662081      13452.1 
52996.001548702      12876.7 
53525.961564189      12419.4 
54061.221179831        11984 
54601.833391629 11484.666666667 
55147.851725545     11089.55 
55699.330242801      10710.5 
56256.323545229      10277.7 
56818.886780681      9865.29 
57387.075648488      9473.81 
57960.946404973      9101.53 
58540.555869022 8736.3333333333 
59125.961427713 8408.7166666667 
59717.22104199      8088.44 
60314.39325241      7782.31 
60917.537184934 7490.1733333333 
61526.712556783 7212.4266666667 
62141.979682351      6946.01 
62763.399479174 6692.2766666667 
63391.033473966 6451.3733333333 
64024.943808706 6172.2385714286 
64665.193246793      5962.78 
65311.845179261     5754.365 
65964.963631053     5489.035 
66624.613267364      5299.64 
67290.859400038     5118.015 
67963.767994038     4889.825 
68643.405673978      4725.78 
69329.839730718     4569.255 
70023.138128025     4370.045 
70723.369509305      4181.76 
71430.603204399      4046.81 
72144.909236443      3917.75 
72866.358328807      3753.34 
73595.021912095      3597.42 
74330.972131216     3439.995 
75074.281852528     3309.185 
75825.024671053      3208.38 
76583.274917764     3111.785 
77349.107666942     2988.325 
78122.598743611      2870.95 
78903.824731047     2759.275 
79692.862978358      2652.94 
80489.791608141      2551.73 
81294.689524223      2455.26 
82107.636419465      2363.37 
82928.712783659     2275.715 
83757.999911496     2192.075 
84595.579910611      2093.04 
85441.535709717     1999.225 
86295.951066814      1928.04 
87158.910577482      1859.28 
88030.499683257     1794.945 
88910.80468009      1732.71 
89799.912726891       1658.8 
90697.91185416     1588.535 
91604.890972701     1535.105 
92520.939882428 1471.5033333333 
93446.149281253      1410.84 
94380.610774065      1364.85 
95324.416881806 1309.9133333333 
96277.661050624      1257.53 
97240.43766113 1207.9066666667 
98212.842037741     1160.585 
99194.970458119      1124.43 
100186.9201627      1098.25 
199060.83304441      71.8848 
399467.9878358      4.56881 
594753.39981818     0.904594 
793700.71765891     0.285938 
997811.18987739     0.116877 
1193529.3359837     0.056227 
1399507.0114645    0.0302709 
