#  WAVELENGTH	        FLUX	
#  (ANGSTROM)	(ERG/CM2/S/A)	
############	############	
142.24129692326  5.86904E-23 
146.55135046134  8.39947E-22 
150.99200293167  6.15018E-21 
154.02694219059  4.87262E-20 
158.69411256591  2.63514E-19 
161.88386422848  1.11205E-18 
165.13772989948  6.23718E-18 
170.14156825316  3.64713E-17 
171.84298393569  1.23542E-16 
175.2970279128   4.4881E-16 
178.82049817385  1.55474E-15 
180.60870315558  2.65076E-15 
186.0813274699  1.20797E-14 
189.82156215205  6.02886E-14 
193.6369755513  1.50192E-13 
197.52907875988  5.87656E-13 
201.49941324296  1.58349E-12 
203.51440737539   3.9074E-12 
209.68109743327  1.72856E-11 
216.03464436659  7.45152E-11 
218.19499081026  1.80279E-10 
222.58071012555  3.85746E-10 
224.8065172268  9.25672E-10 
229.32512822306   2.63704E-9 
233.93456330034   6.62065E-9 
238.63664802268   2.26418E-8 
245.86757709442    7.9677E-8 
250.80951539401   2.36089E-7 
255.85078665343    5.0935E-7 
258.40929451997   8.86318E-7 
263.60332133982   1.72306E-6 
266.23935455322   3.54891E-6 
271.59076557974   7.69402E-6 
277.04973996789   1.62238E-5 
282.61843974125   3.57029E-5 
288.29907038004   8.14428E-5 
294.09388169468   0.00017928 
300.00516871675  0.000337731 
306.03527260795  0.000786868 
315.30844740325   0.00248631 
324.86260866801   0.00726751 
334.70627057326    0.0198663 
344.8482052779    0.0510885 
355.29745074603     0.113904 
362.43892950602     0.243636 
373.42119150899     0.500968 
384.7362270329      1.06997 
392.46942519626      2.19229 
404.36164124913      4.32439 
412.48931023824      7.73282 
420.78034537403      12.6716 
429.23803031605      20.3516 
437.8657147254      37.8899 
446.66681559138      64.7624 
455.64481858477      102.656 
469.4513122327      167.434 
478.88728360858      267.014 
488.51291800911      417.008 
498.3320276611      638.453 
503.31534793771      4986.42 
508.34850141708      13733.2 
518.56630629557      18056.3 
528.98948905211      27060.5 
539.62217778206      32108.7 
545.01839955988      48340.9 
555.97326939103      62560.4 
567.14833210579      81307.3 
578.54801358112      87863.2 
584.33349371693       122900 
596.07859694064       162245 
608.05977673914       203025 
614.14037450653       248217 
626.48459603412       304280 
639.0769364144       363037 
645.46770577855       440101 
651.92238283633       512351 
658.44160666469       576147 
671.67628295866       674728 
678.39304578824       794447 
692.02874600859       944820 
698.94903346867      1097770 
712.99790904139      1288950 
720.12788813181      1482470 
734.60245868325      1684610 
741.94848327009      1935290 
749.36796810279      2208540 
764.43026426165      2500080 
772.07456690427      2835770 
779.79531257331      3195430 
787.59326569905      3578800 
803.4238903396      4002200 
811.45812924299      4447300 
819.57271053542      4956320 
827.76843764078      5423280 
844.40658323736      6038030 
852.85064906973      6622720 
861.37915556043      7312300 
869.99294711603      8019030 
878.69287658719      8795550 
887.47980535306      9585380 
896.3546034066     10274500 
914.37133093507     17636300 
923.51504424442     74965200 
932.75019468686    275132000 
942.07769663373   1562010000 
951.49847360007   3605570000 
961.01345833607   5034260000 
970.62359291943   1376380000 
980.32982884862   7551890000 
990.13312713711   7813340000 
1000.0344584085   8203190000 
1010.0348029926   6430820000 
1020.1351510225    880844000 
1030.3365025327   4962580000 
1040.639867558   8484880000 
1051.0462662336   8450010000 
1061.556728896   7656670000 
1072.1722961849   8286200000 
1082.8940191468   7696060000 
1093.7229593382   8183580000 
1104.6601889316   7654930000 
1115.7067908209   7202570000 
1126.8638587291   7521010000 
1138.1324973164   7078430000 
1149.5138222896   7276350000 
1161.0089605125   7301600000 
1172.6190501176   6384590000 
1184.3452406188   6503595000 
1196.188693025   4073400000 
1208.1505799552    653335000 
1220.2320857548   3855360000 
1232.4344066123   5953190000 
1244.7587506785   6211610000 
1257.2063381852   5987990000 
1269.7784015671   6116220000 
1282.4761855828   5732210000 
1295.3009474386   5296250000 
1308.253956913   5764170000 
1321.3364964821   5555810000 
1334.5498614469   5366240000 
1347.8953600614   5390900000 
1361.374313662   5218190000 
1374.9880567986   5127350000 
1388.7379373666   4891230000 
1402.6253167403   4884340000 
1416.6515699077   4802860000 
1430.8180856068 4750203529.4118 
1445.1262664628 4643094615.3846 
1459.5775291275   4508880000 
1474.1733044187   4400775000 
1488.9150374629   4293330000 
1503.8041878376 4121791818.1818 
1518.8422297159   4033080000 
1534.0306520131   3891350000 
1549.3709585332   3771780000 
1564.8646681186   3763640000 
1580.5133147997   3711595000 
1596.3184479477   3584740000 
1612.2816324272   3513685000 
1628.4044487515   3471750000 
1644.688493239   3373250000 
1661.1353781714   3318275000 
1677.7467319531   3278320000 
1694.5241992726   3162405000 
1711.4694412654   3026345000 
1728.584135678   2979305000 
1745.8699770348   2952540000 
1763.3286768051   2816285000 
1780.9619635732   2802920000 
1798.7715832089   2732470000 
1816.759299041   2687630000 
1834.9268920314   2592610000 
1853.2761609517   2474455000 
1871.8089225613   2443150000 
1890.5270117869   2343705000 
1909.4322819047   2274575000 
1928.5266047238   2267745000 
1947.811870771 2194693636.3636 
1967.2899894787 2186792352.9412 
1986.9628893735 2099101904.7619 
2006.8325182673   2094850000 
2026.9008434499   2028895000 
2047.1698518844   1957095000 
2067.6415504033   1951004000 
2088.3179659073   1886235000 
2109.2011455664   1869150000 
2130.293157022   1821815000 
2151.5960885923   1783665000 
2173.1120494782   1740125000 
2194.843169973 1694456666.6667 
2216.7916016727   1640285000 
2238.9595176894   1606950000 
2261.3491128663   1574320000 
2283.962603995 1529613333.3333 
2306.8022300349   1486040000 
2329.8702523353   1433370000 
2353.1689548586 1402836666.6667 
2376.7006444072   1359620000 
2400.4676508513   1332795000 
2424.4723273598   1306140000 
2448.7170506334   1273985000 
2473.2042211397 1237343333.3333 
2497.9362633511 1207113478.2609 
2522.9156259846 1167431481.4815 
2548.1447822445   1149490000 
2573.6262300669 1124023333.3333 
2599.3624923676   1093850000 
2625.3561172913   1071410000 
2651.6096784642   1047540000 
2678.1257752488   1023630000 
2704.9070330013    997696000 
2731.9561033313    963461000 
2759.2756643647    941879000 
2786.8684210083    909669500 
2814.7371052184 896773333.33333 
2842.8844762706 876117666.66667 
2871.3133210333 852804666.66667 
2900.0264542436    833843000 
2929.026718786    807616500 
2958.3169859739    789045000 
2987.9001558336    767684500 
3017.779157392    748012000 
3047.9569489659    728240500 
3078.4365184556    709105000 
3109.2208836401    691016000 
3140.3130924765    667597500 
3171.7162234013    646167000 
3203.4333856353    633863000 
3235.4677194916    617926000 
3267.8223966866    602797000 
3300.5006206534    583367500 
3333.50562686    568395000 
3366.8406831286    555222000 
3400.5090899598    536901500 
3434.5141808594    522406000 
3468.859322668    510922500 
3503.5479158947    496135500 
3538.5833950537    481597000 
3573.9692290042    469418000 
3609.7089212942    457810800 
3645.8060105072    444844000 
3682.2640706123    426359000 
3719.0867113184    431266500 
3756.2775784316    482291000 
3793.8403542159    493678500 
3831.778757758    563228000 
3870.0965453356    426671000 
3908.797510789    559817500 
3947.8854858969    472314000 
3987.3643407558    523988000 
4027.2379841634    504422000 
4067.510364005    477518500 
4108.1854676451    427663000 
4149.2673223215 465761666.66667 
4190.7599955447    450027500 
4232.6675955002    435306000 
4274.9942714552    419936000 
4317.7442141697    346528500 
4360.9216563114    388472500 
4404.5308728746    384075000 
4448.5761816033 364949333.33333 
4493.0619434193    357195500 
4537.9925628535    346663500 
4583.3724884821    336608500 
4629.2062133669 324458333.33333 
4675.4982755006    311029000 
4722.2532582556    303604000 
4769.4757908381 293077333.33333 
4817.1705487465    267951000 
4865.342254234 253309333.33333 
4913.9956767763    260840500 
4963.1356335441 254157333.33333 
5012.7669898795    245684000 
5062.8946597783 238414666.66667 
5113.5236063761    230503000 
5164.6588424398    222956000 
5216.3054308642    215765500 
5268.4684851729 208834333.33333 
5321.1531700246    200859000 
5374.3647017249    194525500 
5428.1083487421 188401333.33333 
5482.3894322295    181425000 
5537.2133265518 174752666.66667 
5592.5854598173    169413000 
5648.5113144155    164244000 
5704.9964275597 158408666.66667 
5762.0463918353    152775000 
5819.6668557536 146066333.33333 
5877.8635243112 142185333.33333 
5936.6421595543 137312666.66667 
5996.0085811498    132618000 
6055.9686669613 128107666.66667 
6116.5283536309    123784000 
6177.6936371672    119658000 
6239.4705735389 115689333.33333 
6301.8652792743 111857666.66667 
6364.883932067 108228666.66667 
6428.5327713877    104189000 
6492.8180991016     98179500 
6557.7462800926     91131700 
6623.3237428935 93838533.333333 
6689.5569803225     90532225 
6756.4525501257 87460466.666667 
6824.0170756269     84354175 
6892.2572463832 81373566.666667 
6961.179818847     78535825 
7030.7916170355 75475333.333333 
7101.0995332059     73211975 
7172.1105285379 70692066.666667 
7243.8316338233     68233075 
7316.2699501615 66050666.666667 
7389.4326496631     63864050 
7463.3269761598     61471750 
7537.9602459214     59195200 
7613.3398483806 57284633.333333 
7689.4732468644     55454175 
7766.367979333     53434325 
7844.0316591264     51557700 
7922.4719757176     49726175 
8001.6966954748     47978375 
8081.7136624296     46274675 
8162.5307990539     44661275 
8244.1561070444     43139250 
8326.5976681148     41663150 
8409.863644796     39965000 
8493.9622812439     38345850 
8578.9019040564     37127275 
8664.6909230969     35474980 
8751.3378323279     36263500 
8838.8512106512     33463375 
8927.2397227577     33420100 
9016.5121199853     32408100 
9106.6772411851     32239080 
9197.744013597     28842225 
9289.721453733     30086360 
9382.6186682703     28945200 
9476.444854953     26150040 
9571.2093035025     26761300 
9666.9213965375     25998560 
9763.5906105029     25044340 
9861.226516608     24117840 
9959.838781774 22697193.333333 
10059.437169592     21632050 
10160.031541288     21665200 
10261.631856701     20866750 
10364.248175268     20159100 
10467.89065702     19453700 
10572.56956359 18607333.333333 
10678.295259226     17820450 
10785.078211819     17078000 
10892.928993937     15615950 
11001.858283876     16020750 
11111.876866715     15548650 
11222.995635382 14912633.333333 
11335.225591736     14311800 
11448.577847653     13851700 
11563.06362613 13303133.333333 
11678.694262391     12779400 
11795.481205015     12380550 
11913.436017065 11877833.333333 
12032.570377236     11448350 
12152.896081008     11100100 
12274.425041818 10684166.666667 
12397.169292236     10286050 
12521.140985159      9903310 
12646.35239501      9536485 
12772.81591896 8836833.3333333 
12900.54407815 8790513.3333333 
13029.549518932      8494020 
13159.845014121      8196080 
13291.443464262      7910100 
13424.357898905 7636213.3333333 
13558.601477894      7325050 
13694.187492673 7028453.3333333 
13831.129367599      6792550 
13969.440661275      6566980 
14109.135067888      6308280 
14250.226418567 6062173.3333333 
14392.728682753 5827976.6666667 
14536.65596958      5605353 
14682.022529276 5395056.6666667 
14828.842754569 5194523.3333333 
14977.131182115 5000196.6666667 
15126.902493936 4816226.6666667 
15278.171518875 4634113.3333333 
15430.953234064 4459743.3333333 
15585.262766404      4294070 
15741.115394068 4138286.6666667 
15898.526548009 4009471.4285714 
16057.511813489      3787790 
16218.086931624      3746000 
16380.26780094      3516810 
16544.07047895      3527910 
16709.511183739      3274975 
16876.606295577      3255870 
17045.372358532      3146260 
17215.826082118      2934730 
17387.984342939      2873510 
17561.864186368      2792080 
17737.482828232      2703150 
17914.857656514      2587375 
18094.006233079      2407730 
18274.94629541      2380275 
18457.695758364      2306680 
18642.272715948      2177360 
18828.695443107      2144125 
19016.982397539      2060010 
19207.152221514      1976910 
19399.223743729      1849275 
19593.215981166      1831165 
19789.148140978      1761385 
19987.039622388      1694895 
20186.910018612      1631490 
20388.779118798      1569825 
20592.666909986      1513350 
20798.593579086      1458300 
21006.579514877      1404390 
21216.645310025      1355550 
21428.811763126      1304985 
21643.099880757 1226406.6666667 
21859.530879564      1196550 
22078.12618836      1155480 
22298.907450244      1116165 
22521.896524746      1078495 
22747.115489993 1033736.6666667 
22974.586644893       991153 
23204.332511342       958840 
23436.375836456 920248.66666667 
23670.73959482       883458 
23907.446990769     855321.5 
24146.521460676       821670 
24387.986675283       789508 
24631.866542036 758869.33333333 
24878.185207456     729363.5 
25126.967059531 701616.33333333 
25378.236730126     676947.5 
25632.019097427 649760.33333333 
25888.339288402     626867.5 
26147.222681286       590756 
26408.694908098       579308 
26672.781857179     550129.5 
26939.509675751 540849.66666667 
27208.904772509 517621.66666667 
27480.993820234 488519.66666667 
27755.803758436       479587 
28033.361796021 463247.33333333 
28313.695413981 444317.33333333 
28596.832368121       418779 
28882.800691802       409812 
29171.62869872 393739.33333333 
29463.344985707       378440 
29757.978435564       363876 
30055.55821992       345832 
30356.113802119 334143.66666667 
30659.67494014 324195.66666667 
30966.271689541       312185 
31275.934406437 300724.66666667 
31588.693750501 289783.33333333 
31904.580688006     279674.4 
32223.626494886       267744 
32545.862759835       258147 
32871.321387434     244884.5 
33200.034601308     237481.5 
33532.034947321       229387 
33867.355296794       221616 
34206.028849762       211732 
34548.08913826       204658 
34893.570029642     197906.5 
35242.505729939       189309 
35594.930787238     181173.5 
35950.880095111     173459.5 
36310.388896062       167874 
36673.492785022       162596 
37040.227712872       154890 
37410.629990001     148067.5 
37784.736289901       143371 
38162.5836528     137773.5 
38544.209489328     132424.5 
38929.651584221     126731.5 
39318.948100064     122361.5 
39712.137581064     117230.5 
40109.258956875     111202.5 
40510.351546444       108742 
40915.455061908     104722.5 
41324.609612527      99886.6 
41737.855708653        97007 
42155.234265739     93560.55 
42576.786608396     90145.95 
43002.55447448     86937.75 
43432.580019225     83046.25 
43866.905819417 79987.733333333 
44305.574877612      76744.9 
44748.630626388      74147.8 
45196.116932652      71609.5 
45648.078101978 68572.333333333 
46104.558882998      64654.9 
46565.604471828     62491.75 
47031.260516546 60910.833333333 
47501.573121712      58460.9 
47976.588852929     56572.65 
48456.354741458      54321.6 
48940.918288873        52175 
49430.327471761 50139.566666667 
49924.630746479     48195.85 
50423.877053944 46331.533333333 
50928.115824483      43877.3 
51437.396982728 42836.133333333 
51951.770952555      41313.2 
52471.288662081      39767.5 
52996.001548702 38052.266666667 
53525.961564189      36612.6 
54061.221179831 35360.133333333 
54601.833391629 33843.566666667 
55147.851725545     32597.75 
55699.330242801      31529.1 
56256.323545229 30227.133333333 
56818.886780681 28899.566666667 
57387.075648488 27818.366666667 
57960.946404973 26710.333333333 
58540.555869022      25361.9 
59125.961427713 24479.266666667 
59717.22104199 23689.966666667 
60314.39325241 22783.966666667 
60917.537184934 21914.333333333 
61526.712556783 21085.766666667 
62141.979682351 20272.766666667 
62763.399479174      19394.6 
63391.033473966      18824.6 
64024.943808706 17996.471428571 
64665.193246793      17376.8 
65311.845179261      16757.3 
65964.963631053     15972.25 
66624.613267364      15411.6 
67290.859400038      14761.4 
67963.767994038     14197.35 
68643.405673978      13716.1 
69329.839730718      13254.7 
70023.138128025     12667.45 
70723.369509305     12112.75 
71430.603204399      11715.7 
72144.909236443        11335 
72866.358328807      10852.7 
73595.021912095      10387.1 
74330.972131216       9725.6 
75074.281852528      9530.75 
75825.024671053      9254.05 
76583.274917764     8971.185 
77349.107666942     8595.485 
78122.598743611      8266.42 
78903.824731047     7940.185 
79692.862978358      7629.72 
80489.791608141     7333.955 
81294.689524223     7031.525 
82107.636419465      6784.71 
82928.712783659      6529.42 
83757.999911496      6286.02 
84595.579910611      5997.89 
85441.535709717      5724.01 
86295.951066814     5490.895 
87158.910577482      5261.76 
88030.499683257     5131.775 
88910.80468009      4951.34 
89799.912726891      4737.01 
90697.91185416      4533.52 
91604.890972701     4378.825 
92520.939882428      4194.32 
93446.149281253      3988.41 
94380.610774065     3886.585 
95324.416881806      3727.98 
96277.661050624      3576.85 
97240.43766113      3433.75 
98212.842037741     3297.255 
99194.970458119     3193.165 
100186.9201627      3117.57 
199060.83304441       196.87 
399467.9878358      12.1474 
594753.39981818      2.37455 
793700.71765891     0.745869 
997811.18987739      0.30387 
1193529.3359837     0.145941 
1399507.0114645    0.0785079 
