#  WAVELENGTH	        FLUX	
#  (ANGSTROM)	(ERG/CM2/S/A)	
############	############	
        90.9  1.35422E-14 
    92.72709   6.7152E-14 
95.53681355409  3.06718E-13 
97.457103506527  7.52215E-13 
99.415991287008  2.10757E-12 
101.41425271188   7.3561E-12 
103.45267919139  1.81557E-11 
105.53207804313  4.35503E-11 
107.6532728118  1.16793E-10 
109.81710359532   3.9459E-10 
113.14467165136   1.84217E-9 
117.73879903054   8.54705E-9 
120.10534889105   3.25095E-8 
123.7446610678   1.15503E-7 
126.23192875526   2.56596E-7 
127.49424804281   3.98175E-7 
130.05688242847   7.96033E-7 
131.35745125276   1.46456E-6 
132.67102576529   2.34348E-6 
135.33771338317   5.33774E-6 
139.43858143639   1.36422E-5 
142.24129692326    3.6435E-5 
146.55135046134  0.000103494 
150.99200293167  0.000272952 
154.02694219059  0.000757417 
158.69411256591   0.00174625 
161.88386422848   0.00356633 
165.13772989948   0.00839824 
170.14156825316    0.0202134 
171.84298393569    0.0371161 
175.2970279128    0.0706308 
178.82049817385     0.131331 
180.60870315558     0.171438 
186.0813274699     0.365927 
189.82156215205     0.818281 
193.6369755513        1.293 
197.52907875988        2.562 
201.49941324296      4.21041 
203.51440737539      6.62203 
209.68109743327      13.9647 
216.03464436659      29.0609 
218.19499081026       45.272 
222.58071012555      66.3159 
224.8065172268      102.821 
229.32512822306      28699.9 
233.93456330034       160432 
238.63664802268       422030 
245.86757709442       966840 
250.80951539401      1600340 
255.85078665343      1266220 
258.40929451997      3192520 
263.60332133982      5805870 
266.23935455322      8567500 
271.59076557974     10506800 
277.04973996789     10790100 
282.61843974125     18056500 
288.29907038004     20691000 
294.09388169468     18884300 
300.00516871675     13091000 
306.03527260795     23007500 
315.30844740325     56872400 
324.86260866801     70629900 
334.70627057326     94370500 
344.8482052779    121464000 
355.29745074603    143286000 
362.43892950602    182299000 
373.42119150899    212011000 
384.7362270329    262930000 
392.46942519626    319300000 
404.36164124913    379178000 
412.48931023824    445647000 
420.78034537403    497727000 
429.23803031605    558393000 
437.8657147254    665803000 
446.66681559138    765235000 
455.64481858477    849906000 
469.4513122327    978783000 
478.88728360858   1108310000 
488.51291800911   1222910000 
498.3320276611   1397410000 
503.31534793771   5029380000 
508.34850141708  15697600000 
518.56630629557  14989800000 
528.98948905211  14629300000 
539.62217778206  13236000000 
545.01839955988  14304500000 
555.97326939103  15723900000 
567.14833210579  15896000000 
578.54801358112  14895600000 
584.33349371693  15567100000 
596.07859694064  14953000000 
608.05977673914  15280800000 
614.14037450653  16291300000 
626.48459603412  16193000000 
639.0769364144  16063400000 
645.46770577855  16149000000 
651.92238283633  15747400000 
658.44160666469  16054800000 
671.67628295866  16351600000 
678.39304578824  15503600000 
692.02874600859  16438800000 
698.94903346867  15839300000 
712.99790904139  16687200000 
720.12788813181  16618100000 
734.60245868325  16830000000 
741.94848327009  16621500000 
749.36796810279  16584700000 
764.43026426165  16495100000 
772.07456690427  16589600000 
779.79531257331  16835400000 
787.59326569905  16793100000 
803.4238903396  16693500000 
811.45812924299  16749700000 
819.57271053542  16911800000 
827.76843764078  15984000000 
844.40658323736  16806600000 
852.85064906973  16786300000 
861.37915556043  16906000000 
869.99294711603  16887800000 
878.69287658719  16885000000 
887.47980535306  16888400000 
896.3546034066  16710000000 
914.37133093507  17120600000 
923.51504424442  45174500000 
932.75019468686  68018100000 
942.07769663373  98622100000 
951.49847360007 107886000000 
961.01345833607 127151000000 
970.62359291943  81015000000 
980.32982884862 120452000000 
990.13312713711 111190000000 
1000.0344584085 114822000000 
1010.0348029926 112753000000 
1020.1351510225  78818700000 
1030.3365025327 106816000000 
1040.639867558 110029000000 
1051.0462662336 107493000000 
1061.556728896 101488000000 
1072.1722961849 100446000000 
1082.8940191468  93082900000 
1093.7229593382  97372900000 
1104.6601889316  92632250000 
1115.7067908209  86084200000 
1126.8638587291  88185800000 
1138.1324973164  85531400000 
1149.5138222896  83181300000 
1161.0089605125  81384700000 
1172.6190501176  70244700000 
1184.3452406188  75417000000 
1196.188693025  71453100000 
1208.1505799552  51004000000 
1220.2320857548  68885400000 
1232.4344066123  69342600000 
1244.7587506785  66986700000 
1257.2063381852  65749000000 
1269.7784015671  64471600000 
1282.4761855828  61827100000 
1295.3009474386  59672200000 
1308.253956913  59297400000 
1321.3364964821  57658800000 
1334.5498614469  55776950000 
1347.8953600614  54268100000 
1361.374313662  52968500000 
1374.9880567986  51275450000 
1388.7379373666  47977300000 
1402.6253167403  47354950000 
1416.6515699077  45748300000 
1430.8180856068 45387558823.529 
1445.1262664628 43992538461.538 
1459.5775291275  42885900000 
1474.1733044187  41678300000 
1488.9150374629  40361100000 
1503.8041878376 39303654545.455 
1518.8422297159  37918900000 
1534.0306520131  35292200000 
1549.3709585332  33927200000 
1564.8646681186  33943100000 
1580.5133147997  33240700000 
1596.3184479477  31534900000 
1612.2816324272  30573300000 
1628.4044487515  29741300000 
1644.688493239  28839100000 
1661.1353781714  28532250000 
1677.7467319531  28104600000 
1694.5241992726  27288450000 
1711.4694412654  25978400000 
1728.584135678  25564550000 
1745.8699770348  24751500000 
1763.3286768051  24249800000 
1780.9619635732  23450850000 
1798.7715832089  22671400000 
1816.759299041  22045300000 
1834.9268920314  21527750000 
1853.2761609517  20682450000 
1871.8089225613  20021650000 
1890.5270117869  19390950000 
1909.4322819047  18633300000 
1928.5266047238  18213350000 
1947.811870771 17531563636.364 
1967.2899894787 17113535294.118 
1986.9628893735  16522300000 
2006.8325182673  16077850000 
2026.9008434499  15554550000 
2047.1698518844  12660950000 
2067.6415504033  12685185000 
2088.3179659073  13919150000 
2109.2011455664  13777050000 
2130.293157022  13359000000 
2151.5960885923  12967100000 
2173.1120494782  12621700000 
2194.843169973  12192500000 
2216.7916016727  11821400000 
2238.9595176894  11362250000 
2261.3491128663  11143750000 
2283.962603995  10607000000 
2306.8022300349  10355000000 
2329.8702523353  10064225000 
2353.1689548586 9711206666.6667 
2376.7006444072   9270240000 
2400.4676508513   9111190000 
2424.4723273598 8799496666.6667 
2448.7170506334   8498970000 
2473.2042211397   8102290000 
2497.9362633511 7804083043.4783 
2522.9156259846 7664287777.7778 
2548.1447822445   7423130000 
2573.6262300669 7182406666.6667 
2599.3624923676 6922506666.6667 
2625.3561172913   6697345000 
2651.6096784642   6473000000 
2678.1257752488   6269815000 
2704.9070330013 6075623333.3333 
2731.9561033313 5828253333.3333 
2759.2756643647 5634556666.6667 
2786.8684210083   5463645000 
2814.7371052184 5290156666.6667 
2842.8844762706   5115740000 
2871.3133210333 4933853333.3333 
2900.0264542436   4787390000 
2929.026718786   4609920000 
2958.3169859739   4459650000 
2987.9001558336   4304645000 
3017.779157392   4156770000 
3047.9569489659   4018360000 
3078.4365184556   3880660000 
3109.2208836401   3755290000 
3140.3130924765   3591095000 
3171.7162234013   3454150000 
3203.4333856353   3349265000 
3235.4677194916   3253500000 
3267.8223966866   3149380000 
3300.5006206534   3019645000 
3333.50562686   2920960000 
3366.8406831286   2834890000 
3400.5090899598   2716385000 
3434.5141808594   2623710000 
3468.859322668   2549800000 
3503.5479158947   2451915000 
3538.5833950537   2360790000 
3573.9692290042   2284100000 
3609.7089212942   2211428000 
3645.8060105072 2071113333.3333 
3682.2640706123   1995145000 
3719.0867113184   1914760000 
3756.2775784316   1891755000 
3793.8403542159   1858235000 
3831.778757758   1940155000 
3870.0965453356   1665480000 
3908.797510789   1869740000 
3947.8854858969   1680960000 
3987.3643407558   1738685000 
4027.2379841634   1665045000 
4067.510364005   1594445000 
4108.1854676451   1474830000 
4149.2673223215 1503826666.6667 
4190.7599955447   1440220000 
4232.6675955002   1393640000 
4274.9942714552   1344020000 
4317.7442141697   1199500000 
4360.9216563114   1244250000 
4404.5308728746   1215020000 
4448.5761816033   1156210000 
4493.0619434193   1119610000 
4537.9925628535   1079980000 
4583.3724884821   1049000000 
4629.2062133669   1005199000 
4675.4982755006    956223000 
4722.2532582556    938599000 
4769.4757908381    902718000 
4817.1705487465    847584000 
4865.342254234    803278000 
4913.9956767763    797719000 
4963.1356335441 772743333.33333 
5012.7669898795    745140000 
5062.8946597783    719374000 
5113.5236063761    693442000 
5164.6588424398    668769000 
5216.3054308642    645102500 
5268.4684851729    622548000 
5321.1531700246    596742000 
5374.3647017249    574287000 
5428.1083487421 556607666.66667 
5482.3894322295    534139000 
5537.2133265518    512768000 
5592.5854598173    495786000 
5648.5113144155 478987666.66667 
5704.9964275597    454967000 
5762.0463918353    437705000 
5819.6668557536 418680333.33333 
5877.8635243112 406731333.33333 
5936.6421595543    393231000 
5996.0085811498    380080000 
6055.9686669613 366114666.66667 
6116.5283536309    352764000 
6177.6936371672 340020666.66667 
6239.4705735389    327848000 
6301.8652792743    316209000 
6364.883932067 305087666.66667 
6428.5327713877    292734250 
6492.8180991016    278353000 
6557.7462800926 261919333.33333 
6623.3237428935 261589333.33333 
6689.5569803225    251460250 
6756.4525501257 242258333.33333 
6824.0170756269    232917750 
6892.2572463832 224130333.33333 
6961.179818847    215714000 
7030.7916170355 206897333.33333 
7101.0995332059    199958250 
7172.1105285379 192637333.33333 
7243.8316338233    185447500 
7316.2699501615 179041333.33333 
7389.4326496631    172680750 
7463.3269761598    165736000 
7537.9602459214    159077500 
7613.3398483806    153645000 
7689.4732468644    148379750 
7766.367979333    142625500 
7844.0316591264    137233750 
7922.4719757176    132013750 
8001.6966954748    127048000 
8081.7136624296    122206750 
8162.5307990539    117300500 
8244.1561070444    112753500 
8326.5976681148    108639750 
8409.863644796    104248800 
8493.9622812439    100130150 
8578.9019040564     96362125 
8664.6909230969     92140680 
8751.3378323279     90345600 
8838.8512106512     85274825 
8927.2397227577     83286540 
9016.5121199853     80407100 
9106.6772411851     78812920 
9197.744013597     72573825 
9289.721453733     73078260 
9382.6186682703     70213760 
9476.444854953     64851240 
9571.2093035025     64812950 
9666.9213965375     62692060 
9763.5906105029     60286580 
9861.226516608     57954320 
9959.838781774 55026146.666667 
10059.437169592     52459350 
10160.031541288     51806100 
10261.631856701     49812750 
10364.248175268     48044000 
10467.89065702     46289350 
10572.56956359     44192600 
10678.295259226     42237750 
10785.078211819     40543750 
10892.928993937     37740400 
11001.858283876     37849100 
11111.876866715     36637200 
11222.995635382     35078500 
11335.225591736     33602650 
11448.577847653     32478150 
11563.06362613 31120766.666667 
11678.694262391     29865100 
11795.481205015     28892300 
11913.436017065     27664000 
12032.570377236     26631250 
12152.896081008     25787700 
12274.425041818 24783233.333333 
12397.169292236     23822950 
12521.140985159 22901233.333333 
12646.35239501     22037200 
12772.81591896 20640466.666667 
12900.54407815 20237633.333333 
13029.549518932     19523750 
13159.845014121 18812533.333333 
13291.443464262     18131300 
13424.357898905     17479400 
13558.601477894 16740833.333333 
13694.187492673 16037933.333333 
13831.129367599     15479500 
13969.440661275 14946666.666667 
14109.135067888 14336266.666667 
14250.226418567 13756666.666667 
14392.728682753     13206000 
14536.65596958     12681140 
14682.022529276 12181533.333333 
14828.842754569 11712866.666667 
14977.131182115 11258233.333333 
15126.902493936     10834100 
15278.171518875     10422600 
15430.953234064     10028820 
15585.262766404 9651246.6666667 
15741.115394068 9291016.6666667 
15898.526548009 8928727.1428571 
16057.511813489      8537670 
16218.086931624      8293985 
16380.26780094      7905140 
16544.07047895      7755930 
16709.511183739      7286290 
16876.606295577      7141690 
17045.372358532      6887195 
17215.826082118      6490835 
17387.984342939      6286350 
17561.864186368      6091810 
17737.482828232      5892365 
17914.857656514      5636320 
18094.006233079      5294455 
18274.94629541      5170175 
18457.695758364      5005840 
18642.272715948      4752925 
18828.695443107      4648565 
19016.982397539      4455140 
19207.152221514      4276765 
19399.223743729      4028400 
19593.215981166      3948820 
19789.148140978      3794340 
19987.039622388      3647410 
20186.910018612      3507455 
20388.779118798      3371930 
20592.666909986      3247125 
20798.593579086      3126075 
21006.579514877      3006925 
21216.645310025      2900305 
21428.811763126      2791870 
21643.099880757 2632606.6666667 
21859.530879564      2552125 
22078.12618836      2462320 
22298.907450244      2376530 
22521.896524746      2294420 
22747.115489993      2196790 
22974.586644893      2103955 
23204.332511342      2033575 
23436.375836456 1949696.6666667 
23670.73959482      1869775 
23907.446990769      1808915 
24146.521460676 1736393.3333333 
24387.986675283      1667855 
24631.866542036 1601676.6666667 
24878.185207456      1539295 
25126.967059531 1479756.6666667 
25378.236730126      1424260 
25632.019097427      1368810 
25888.339288402      1317320 
26147.222681286      1248380 
26408.694908098      1213310 
26672.781857179      1162005 
26939.509675751 1128113.3333333 
27208.904772509      1079210 
27480.993820234 1026293.3333333 
27755.803758436     997712.5 
28033.361796021 963074.33333333 
28313.695413981       923212 
28596.832368121 876763.33333333 
28882.800691802       849976 
29171.62869872       816009 
29463.344985707 783707.33333333 
29757.978435564       752994 
30055.55821992 718552.33333333 
30356.113802119 692615.33333333 
30659.67494014 669464.66666667 
30966.271689541       644219 
31275.934406437 620140.66666667 
31588.693750501 597190.66666667 
31904.580688006     576000.2 
32223.626494886       550996 
32545.862759835       531118 
32871.321387434       506246 
33200.034601308       488707 
33532.034947321       471639 
33867.355296794     455363.5 
34206.028849762       434662 
34548.08913826       419880 
34893.570029642       405769 
35242.505729939       387827 
35594.930787238     370874.5 
35950.880095111     354846.5 
36310.388896062       343349 
36673.492785022     332379.5 
37040.227712872     316565.5 
37410.629990001       302864 
37784.736289901       292450 
38162.5836528     280524.5 
38544.209489328       269252 
38929.651584221     258193.5 
39318.948100064       248236 
39712.137581064       238258 
40109.258956875     226609.5 
40510.351546444     220345.5 
40915.455061908     211969.5 
41324.609612527       203304 
41737.855708653       196312 
42155.234265739       189085 
42576.786608396     182087.5 
43002.55447448       175536 
43432.580019225     168477.5 
43866.905819417       161525 
44305.574877612     154626.5 
44748.630626388       149259 
45196.116932652       144085 
45648.078101978 137933.33333333 
46104.558882998       130532 
46565.604471828       126454 
47031.260516546 122369.66666667 
47501.573121712       117337 
47976.588852929       113503 
48456.354741458 108933.33333333 
48940.918288873       104578 
49430.327471761     100452.4 
49924.630746479      96514.3 
50423.877053944        92779 
50928.115824483     88347.05 
51437.396982728 85773.433333333 
51951.770952555     82586.25 
52471.288662081 79508.766666667 
52996.001548702      75996.8 
53525.961564189      73212.3 
54061.221179831 70563.566666667 
54601.833391629 67535.066666667 
55147.851725545      65130.5 
55699.330242801      62840.6 
56256.323545229      60218.9 
56818.886780681 57703.666666667 
57387.075648488 55372.066666667 
57960.946404973      53136.2 
58540.555869022 50615.066666667 
59125.961427713 48854.066666667 
59717.22104199      47068.6 
60314.39325241      45237.7 
60917.537184934      43494.2 
61526.712556783 41834.533333333 
62141.979682351 40239.933333333 
62763.399479174 38633.833333333 
63391.033473966 37307.166666667 
64024.943808706 35650.871428571 
64665.193246793      34411.4 
65311.845179261     33173.55 
65964.963631053      31604.9 
66624.613267364      30485.9 
67290.859400038     29314.15 
67963.767994038      28069.1 
68643.405673978      27103.8 
69329.839730718     26183.55 
70023.138128025      25014.1 
70723.369509305     23909.25 
71430.603204399        23118 
72144.909236443     22363.15 
72866.358328807     21401.65 
73595.021912095     20480.15 
74330.972131216      19274.2 
75074.281852528     18791.35 
75825.024671053      18224.6 
76583.274917764      17662.6 
77349.107666942     16945.25 
78122.598743611     16264.05 
78903.824731047     15617.05 
79692.862978358      15001.3 
80489.791608141        14416 
81294.689524223      13851.5 
82107.636419465      13328.1 
82928.712783659     12822.65 
83757.999911496      12340.9 
84595.579910611 11770.833333333 
85441.535709717     11231.25 
86295.951066814     10807.05 
87158.910577482     10359.05 
88030.499683257     10059.34 
88910.80468009     9703.335 
89799.912726891 9280.4566666667 
90697.91185416     8878.835 
91604.890972701      8573.75 
92520.939882428 8210.8966666667 
93446.149281253      7840.92 
94380.610774065      7603.56 
95324.416881806 7291.1233333333 
96277.661050624     6993.455 
97240.43766113 6711.9433333333 
98212.842037741     6443.395 
99194.970458119     6238.535 
100186.9201627      6089.95 
199060.83304441      379.546 
399467.9878358      23.2205 
594753.39981818      4.51688 
793700.71765891       1.4125 
997811.18987739     0.573194 
1193529.3359837     0.274333 
1399507.0114645     0.147142 
