#  WAVELENGTH	        FLUX	
#  (ANGSTROM)	(ERG/CM2/S/A)	
############	############	
844.40658323736  1.87124E-25 
852.85064906973  4.22165E-25 
861.37915556043   9.3394E-25 
869.99294711603  2.02879E-24 
878.69287658719  4.31003E-24 
887.47980535306  9.07604E-24 
896.3546034066  1.85774E-23 
914.37133093507  2.46559E-20 
923.51504424442     1.26E-19 
932.75019468686  2.58537E-19 
942.07769663373  4.88218E-19 
951.49847360007  1.05717E-18 
961.01345833607  2.34908E-18 
970.62359291943  4.02283E-18 
980.32982884862   9.1163E-18 
990.13312713711  1.78604E-17 
1000.0344584085  3.15855E-17 
1010.0348029926  5.87716E-17 
1020.1351510225  1.06939E-16 
1030.3365025327  2.27408E-16 
1040.639867558  4.00802E-16 
1051.0462662336   5.9707E-16 
1061.556728896   1.2334E-15 
1072.1722961849  2.06477E-15 
1082.8940191468  3.91283E-15 
1093.7229593382  5.83747E-15 
1104.6601889316 1.3057015E-14 
1115.7067908209  2.97842E-14 
1126.8638587291  5.56574E-14 
1138.1324973164  8.94077E-14 
1149.5138222896   1.6499E-13 
1161.0089605125   2.5189E-13 
1172.6190501176  5.11029E-13 
1184.3452406188  7.97971E-13 
1196.188693025  1.31757E-12 
1208.1505799552  1.02118E-12 
1220.2320857548   2.8966E-12 
1232.4344066123  4.92346E-12 
1244.7587506785 1.353455E-11 
1257.2063381852  3.60105E-11 
1269.7784015671  6.47123E-11 
1282.4761855828  1.40966E-10 
1295.3009474386  3.42261E-10 
1308.253956913   4.6925E-10 
1321.3364964821  7.07465E-10 
1334.5498614469  1.177638E-9 
1347.8953600614   1.97114E-9 
1361.374313662   2.53934E-9 
1374.9880567986  2.909615E-9 
1388.7379373666   4.54006E-9 
1402.6253167403   7.46236E-9 
1416.6515699077   8.30443E-9 
1430.8180856068 1.7666182352941E-8 
1445.1262664628 1.9833815384615E-8 
1459.5775291275   3.08531E-8 
1474.1733044187   3.74069E-8 
1488.9150374629   6.96835E-8 
1503.8041878376 9.1191618181818E-8 
1518.8422297159   1.37461E-7 
1534.0306520131   1.74831E-7 
1549.3709585332   2.24712E-7 
1564.8646681186   3.17933E-7 
1580.5133147997  4.597615E-7 
1596.3184479477    5.5095E-7 
1612.2816324272    6.7818E-7 
1628.4044487515    9.6135E-7 
1644.688493239   1.34372E-6 
1661.1353781714 2.2464695454545E-6 
1677.7467319531   3.72057E-6 
1694.5241992726    6.0015E-6 
1711.4694412654  8.833305E-6 
1728.584135678   1.48496E-5 
1745.8699770348   1.78028E-5 
1763.3286768051   2.26855E-5 
1780.9619635732   4.02954E-5 
1798.7715832089  5.881165E-5 
1816.759299041   8.32077E-5 
1834.9268920314  9.733685E-5 
1853.2761609517 0.00012778325 
1871.8089225613 0.0001776145 
1890.5270117869  0.000262575 
1909.4322819047 0.0003540955 
1928.5266047238  0.000358006 
1947.811870771 0.00076942672727273 
1967.2899894787 0.0010799142352941 
1986.9628893735 0.0012538985714286 
2006.8325182673   0.00159028 
2026.9008434499   0.00202789 
2047.1698518844   0.00249886 
2067.6415504033  0.003527673 
2088.3179659073     0.021984 
2109.2011455664    0.0293753 
2130.293157022   0.03875865 
2151.5960885923    0.0442726 
2173.1120494782    0.0434371 
2194.843169973 0.097007333333333 
2216.7916016727   0.13974325 
2238.9595176894    0.2999605 
2261.3491128663   0.23391285 
2283.962603995 0.34083463333333 
2306.8022300349    0.8770855 
2329.8702523353     1.007881 
2353.1689548586     0.528795 
2376.7006444072      1.66828 
2400.4676508513      3.12199 
2424.4723273598 5.3430833333333 
2448.7170506334     7.698615 
2473.2042211397 5.5696333333333 
2497.9362633511 6.1158734782609 
2522.9156259846 30.425019259259 
2548.1447822445      31.5906 
2573.6262300669      29.9315 
2599.3624923676 55.586333333333 
2625.3561172913     151.1755 
2651.6096784642 164.45266666667 
2678.1257752488    134.42975 
2704.9070330013      198.145 
2731.9561033313 218.27433333333 
2759.2756643647 434.84133333333 
2786.8684210083     404.0075 
2814.7371052184      341.473 
2842.8844762706 147.84063333333 
2871.3133210333 715.55366666667 
2900.0264542436      1391.01 
2929.026718786     1599.215 
2958.3169859739      1411.87 
2987.9001558336     1892.575 
3017.779157392      2456.22 
3047.9569489659     3079.845 
3078.4365184556      2700.17 
3109.2208836401      4627.82 
3140.3130924765     8066.085 
3171.7162234013      8484.49 
3203.4333856353      10438.1 
3235.4677194916      16290.8 
3267.8223966866     22724.95 
3300.5006206534     20725.15 
3333.50562686      18398.3 
3366.8406831286     13713.55 
3400.5090899598      21795.4 
3434.5141808594      20807.3 
3468.859322668      25426.5 
3503.5479158947     37782.55 
3538.5833950537     41913.05 
3573.9692290042      26434.4 
3609.7089212942     45913.08 
3645.8060105072      66020.7 
3682.2640706123        54908 
3719.0867113184     27261.15 
3756.2775784316      70008.3 
3793.8403542159      53243.4 
3831.778757758     54319.25 
3870.0965453356      55167.2 
3908.797510789     50919.35 
3947.8854858969     50360.95 
3987.3643407558     121702.5 
4027.2379841634     117091.5 
4067.510364005       129725 
4108.1854676451      94507.3 
4149.2673223215      99320.2 
4190.7599955447      85981.7 
4232.6675955002     114769.5 
4274.9942714552     125849.5 
4317.7442141697     178956.5 
4360.9216563114       181819 
4404.5308728746     189847.5 
4448.5761816033 220669.33333333 
4493.0619434193       240453 
4537.9925628535     254946.5 
4583.3724884821     265293.5 
4629.2062133669       275659 
4675.4982755006     281173.5 
4722.2532582556       275430 
4769.4757908381 256505.66666667 
4817.1705487465       300313 
4865.342254234 322886.66666667 
4913.9956767763       312484 
4963.1356335441       266393 
5012.7669898795     249436.5 
5062.8946597783       230314 
5113.5236063761     211650.5 
5164.6588424398 231901.66666667 
5216.3054308642     383800.5 
5268.4684851729 399545.33333333 
5321.1531700246       416305 
5374.3647017249     422199.5 
5428.1083487421 419438.66666667 
5482.3894322295       436236 
5537.2133265518 456710.66666667 
5592.5854598173       458257 
5648.5113144155 489231.33333333 
5704.9964275597 504410.66666667 
5762.0463918353 520207.66666667 
5819.6668557536 523985.33333333 
5877.8635243112       455283 
5936.6421595543 527917.66666667 
5996.0085811498       552119 
6055.9686669613 562583.33333333 
6116.5283536309 538672.33333333 
6177.6936371672 528254.33333333 
6239.4705735389 537425.66666667 
6301.8652792743       578003 
6364.883932067 589466.66666667 
6428.5327713877     586533.5 
6492.8180991016 609348.33333333 
6557.7462800926       614081 
6623.3237428935       610897 
6689.5569803225    582825.75 
6756.4525501257 596225.33333333 
6824.0170756269    622169.25 
6892.2572463832 644055.33333333 
6961.179818847    659816.25 
7030.7916170355       619834 
7101.0995332059    580335.75 
7172.1105285379       619743 
7243.8316338233    660317.75 
7316.2699501615 674962.66666667 
7389.4326496631    686021.25 
7463.3269761598       692223 
7537.9602459214    693474.75 
7613.3398483806       678688 
7689.4732468644    674671.25 
7766.367979333    684970.25 
7844.0316591264       691506 
7922.4719757176    695987.75 
8001.6966954748    698427.25 
8081.7136624296    702445.25 
8162.5307990539       694981 
8244.1561070444       697351 
8326.5976681148     682705.5 
8409.863644796     683220.4 
8493.9622812439     671572.5 
8578.9019040564       693809 
8664.6909230969     679635.6 
8751.3378323279       689369 
8838.8512106512     683590.5 
8927.2397227577       679302 
9016.5121199853    681581.25 
9106.6772411851     681877.4 
9197.744013597    676756.75 
9289.721453733     669582.6 
9382.6186682703     668157.8 
9476.444854953     663486.8 
9571.2093035025    654372.75 
9666.9213965375     644624.2 
9763.5906105029     645023.8 
9861.226516608       647556 
9959.838781774     643794.2 
10059.437169592     638806.5 
10160.031541288     634582.5 
10261.631856701     630036.5 
10364.248175268     625921.5 
10467.89065702     621678.5 
10572.56956359 614943.33333333 
10678.295259226     608926.5 
10785.078211819       603325 
10892.928993937       594064 
11001.858283876     585004.5 
11111.876866715       575964 
11222.995635382       569253 
11335.225591736       556971 
11448.577847653     557522.5 
11563.06362613 547963.66666667 
11678.694262391       542930 
11795.481205015     535036.5 
11913.436017065 531794.66666667 
12032.570377236       530408 
12152.896081008     527877.5 
12274.425041818       522587 
12397.169292236     518167.5 
12521.140985159 512992.66666667 
12646.35239501       507964 
12772.81591896       501376 
12900.54407815 496404.33333333 
13029.549518932     487973.5 
13159.845014121 479358.33333333 
13291.443464262     426988.5 
13424.357898905 403729.66666667 
13558.601477894 400964.33333333 
13694.187492673 405410.66666667 
13831.129367599     381617.5 
13969.440661275 372060.33333333 
14109.135067888 357421.66666667 
14250.226418567       353825 
14392.728682753 353163.33333333 
14536.65596958 343134.73333333 
14682.022529276 341804.33333333 
14828.842754569       344977 
14977.131182115       345279 
15126.902493936       349729 
15278.171518875       347871 
15430.953234064 352106.33333333 
15585.262766404 356972.66666667 
15741.115394068 361958.33333333 
15898.526548009 367965.42857143 
16057.511813489       373607 
16218.086931624     372297.5 
16380.26780094       373913 
16544.07047895       372624 
16709.511183739       363146 
16876.606295577       352454 
17045.372358532       332407 
17215.826082118     308750.5 
17387.984342939       282225 
17561.864186368       263293 
17737.482828232       242790 
17914.857656514       225446 
18094.006233079       214061 
18274.94629541       201577 
18457.695758364       185222 
18642.272715948     182392.5 
18828.695443107       187234 
19016.982397539     186678.5 
19207.152221514     181471.5 
19399.223743729     178752.5 
19593.215981166     172490.5 
19789.148140978       161656 
19987.039622388       156003 
20186.910018612       152190 
20388.779118798       150298 
20592.666909986       146933 
20798.593579086     145775.5 
21006.579514877       146338 
21216.645310025       146217 
21428.811763126       146868 
21643.099880757 147590.66666667 
21859.530879564     146934.5 
22078.12618836     146619.5 
22298.907450244       145727 
22521.896524746       143131 
22747.115489993       136866 
22974.586644893       129584 
23204.332511342     119927.5 
23436.375836456       113897 
23670.73959482       107346 
23907.446990769     99148.25 
24146.521460676 88326.933333333 
24387.986675283     79086.75 
24631.866542036 71449.633333333 
24878.185207456     66378.25 
25126.967059531 60993.166666667 
25378.236730126     59476.55 
25632.019097427 57112.566666667 
25888.339288402     57174.75 
26147.222681286 58405.566666667 
26408.694908098 57836.566666667 
26672.781857179      55428.5 
26939.509675751 51827.933333333 
27208.904772509      48124.4 
27480.993820234      45762.9 
27755.803758436     44407.05 
28033.361796021 41548.733333333 
28313.695413981 40642.766666667 
28596.832368121 39655.633333333 
28882.800691802 38647.266666667 
29171.62869872 36150.066666667 
29463.344985707 35860.266666667 
29757.978435564 34089.266666667 
30055.55821992      33968.1 
30356.113802119 32981.166666667 
30659.67494014 31919.033333333 
30966.271689541      31773.4 
31275.934406437      30903.5 
31588.693750501      30800.6 
31904.580688006     30293.78 
32223.626494886      30007.6 
32545.862759835      29663.1 
32871.321387434        29551 
33200.034601308        29093 
33532.034947321      28922.6 
33867.355296794     28554.75 
34206.028849762      28231.6 
34548.08913826      28302.4 
34893.570029642      27555.6 
35242.505729939     27085.95 
35594.930787238     26605.45 
35950.880095111      26155.7 
36310.388896062      25681.6 
36673.492785022      25327.2 
37040.227712872      24803.1 
37410.629990001     24321.35 
37784.736289901      23874.7 
38162.5836528     23083.45 
38544.209489328      22496.8 
38929.651584221      21760.3 
39318.948100064     20954.85 
39712.137581064     19878.15 
40109.258956875     19027.05 
40510.351546444      17838.8 
40915.455061908      17218.6 
41324.609612527     16518.85 
41737.855708653     15927.15 
42155.234265739     15317.45 
42576.786608396     14669.75 
43002.55447448      13868.7 
43432.580019225     13106.35 
43866.905819417      12324.1 
44305.574877612     11672.95 
44748.630626388     11247.65 
45196.116932652     10785.45 
45648.078101978 10332.166666667 
46104.558882998      9889.18 
46565.604471828      9582.01 
47031.260516546      9290.08 
47501.573121712      8823.96 
47976.588852929      8569.13 
48456.354741458 8144.6533333333 
48940.918288873     7927.745 
49430.327471761      7552.26 
49924.630746479     7153.455 
50423.877053944 6899.3066666667 
50928.115824483     6626.195 
51437.396982728 6348.0633333333 
51951.770952555     6161.845 
52471.288662081 5872.3433333333 
52996.001548702 5682.5833333333 
53525.961564189      5491.87 
54061.221179831      5200.18 
54601.833391629 5092.3833333333 
55147.851725545      4826.64 
55699.330242801 4763.0833333333 
56256.323545229      4577.88 
56818.886780681      4362.13 
57387.075648488 4301.9433333333 
57960.946404973 4136.4866666667 
58540.555869022 4022.4933333333 
59125.961427713 3909.2033333333 
59717.22104199       3813.2 
60314.39325241 3705.3466666667 
60917.537184934      3624.32 
61526.712556783 3526.3066666667 
62141.979682351 3410.5166666667 
62763.399479174 3310.1366666667 
63391.033473966 3152.4366666667 
64024.943808706 2865.8928571429 
64665.193246793      2660.83 
65311.845179261      2477.92 
65964.963631053     2313.375 
66624.613267364      2228.24 
67290.859400038      2165.53 
67963.767994038      2079.94 
68643.405673978         2012 
69329.839730718      1978.46 
70023.138128025      1886.94 
70723.369509305     1811.925 
71430.603204399      1801.57 
72144.909236443      1713.05 
72866.358328807      1662.51 
73595.021912095     1601.385 
74330.972131216     1552.985 
75074.281852528      1485.62 
75825.024671053      1418.31 
76583.274917764      1396.97 
77349.107666942     1336.955 
78122.598743611     1288.095 
78903.824731047     1229.895 
79692.862978358     1187.055 
80489.791608141     1134.125 
81294.689524223      1108.12 
82107.636419465      1064.75 
82928.712783659      1019.98 
83757.999911496     987.9885 
84595.579910611 952.43566666667 
85441.535709717      917.035 
86295.951066814     897.3355 
87158.910577482     855.8685 
88030.499683257      836.847 
88910.80468009     817.1835 
89799.912726891      789.081 
90697.91185416      764.676 
91604.890972701     742.6905 
92520.939882428      713.319 
93446.149281253      686.657 
94380.610774065      667.353 
95324.416881806      646.632 
96277.661050624      617.763 
97240.43766113 601.96833333333 
98212.842037741      569.742 
99194.970458119     559.2015 
100186.9201627      545.245 
199060.83304441      39.3184 
399467.9878358       2.6138 
594753.39981818     0.524889 
793700.71765891     0.167027 
997811.18987739    0.0685236 
1193529.3359837    0.0330371 
1399507.0114645    0.0178114 
