#  WAVELENGTH	        FLUX	
#  (ANGSTROM)	(ERG/CM2/S/A)	
############	############	
478.88728360858    2.237E-24 
488.51291800911  9.37274E-24 
498.3320276611  3.69224E-23 
503.31534793771  1.08733E-22 
508.34850141708  2.65047E-22 
518.56630629557  7.21319E-22 
528.98948905211  2.42561E-21 
539.62217778206  7.65889E-21 
545.01839955988  2.33984E-20 
555.97326939103  6.81164E-20 
567.14833210579  1.90476E-19 
578.54801358112  5.07174E-19 
584.33349371693  1.33117E-18 
596.07859694064   3.3396E-18 
608.05977673914  8.10987E-18 
614.14037450653  1.90933E-17 
626.48459603412  4.36501E-17 
639.0769364144   9.7089E-17 
645.46770577855  2.10265E-16 
651.92238283633  3.83069E-16 
658.44160666469  6.39161E-16 
671.67628295866  1.30178E-15 
678.39304578824  2.59185E-15 
692.02874600859  5.04988E-15 
698.94903346867  9.63608E-15 
712.99790904139  1.91769E-14 
720.12788813181  3.51411E-14 
734.60245868325  5.96926E-14 
741.94848327009  1.05805E-13 
749.36796810279  1.84425E-13 
764.43026426165  3.16365E-13 
772.07456690427  5.34389E-13 
779.79531257331  8.89457E-13 
787.59326569905  1.45864E-12 
803.4238903396  2.36197E-12 
811.45812924299  3.77373E-12 
819.57271053542  5.95352E-12 
827.76843764078  9.28068E-12 
844.40658323736  1.42973E-11 
852.85064906973   2.1779E-11 
861.37915556043  3.28159E-11 
869.99294711603   4.8924E-11 
878.69287658719  7.22221E-11 
887.47980535306   1.0557E-10 
896.3546034066  1.52868E-10 
914.37133093507   3.09901E-6 
923.51504424442   1.10414E-5 
932.75019468686   1.57337E-5 
942.07769663373   2.31976E-5 
951.49847360007    3.5192E-5 
961.01345833607   4.91816E-5 
970.62359291943   6.74854E-5 
980.32982884862    9.8626E-5 
990.13312713711  0.000137126 
1000.0344584085  0.000193198 
1010.0348029926  0.000257247 
1020.1351510225  0.000341335 
1030.3365025327  0.000494607 
1040.639867558  0.000676787 
1051.0462662336  0.000895195 
1061.556728896   0.00120224 
1072.1722961849   0.00159794 
1082.8940191468    0.0021201 
1093.7229593382   0.00275309 
1104.6601889316  0.009570125 
1115.7067908209    0.0200491 
1126.8638587291    0.0300455 
1138.1324973164    0.0372729 
1149.5138222896    0.0397027 
1161.0089605125    0.0444424 
1172.6190501176    0.0476784 
1184.3452406188   0.05191585 
1196.188693025    0.0358537 
1208.1505799552    0.0211062 
1220.2320857548    0.0539204 
1232.4344066123    0.0830413 
1244.7587506785     0.181086 
1257.2063381852     0.354148 
1269.7784015671     0.527638 
1282.4761855828      0.95916 
1295.3009474386      1.50511 
1308.253956913      1.98698 
1321.3364964821       2.5821 
1334.5498614469      3.55512 
1347.8953600614      4.69592 
1361.374313662      5.88157 
1374.9880567986     7.322075 
1388.7379373666      9.27216 
1402.6253167403     12.06435 
1416.6515699077      14.4709 
1430.8180856068 18.437788235294 
1445.1262664628 22.125669230769 
1459.5775291275      26.6194 
1474.1733044187      31.5339 
1488.9150374629      42.0231 
1503.8041878376 49.638263636364 
1518.8422297159      65.3521 
1534.0306520131    102.47005 
1549.3709585332      125.608 
1564.8646681186     145.5425 
1580.5133147997     199.0615 
1596.3184479477      226.124 
1612.2816324272      294.021 
1628.4044487515      398.937 
1644.688493239     482.6945 
1661.1353781714 680.13327272727 
1677.7467319531      1007.22 
1694.5241992726     1262.265 
1711.4694412654      2043.34 
1728.584135678      5146.67 
1745.8699770348      11559.9 
1763.3286768051     13980.45 
1780.9619635732     29527.25 
1798.7715832089      32197.6 
1816.759299041      36641.2 
1834.9268920314     38941.75 
1853.2761609517     59440.75 
1871.8089225613      75480.7 
1890.5270117869      94111.3 
1909.4322819047    102516.65 
1928.5266047238      91547.6 
1947.811870771 165467.09090909 
1967.2899894787 169776.11764706 
1986.9628893735 188082.38095238 
2006.8325182673     188820.5 
2026.9008434499     269052.5 
2047.1698518844       282101 
2067.6415504033    394962.35 
2088.3179659073     459391.5 
2109.2011455664       509400 
2130.293157022       510211 
2151.5960885923     565816.5 
2173.1120494782     612769.5 
2194.843169973       680340 
2216.7916016727     762265.5 
2238.9595176894     731052.5 
2261.3491128663     691253.5 
2283.962603995       830757 
2306.8022300349       844574 
2329.8702523353     519922.5 
2353.1689548586       663127 
2376.7006444072       397426 
2400.4676508513       532358 
2424.4723273598 1058783.3333333 
2448.7170506334      1165320 
2473.2042211397       864640 
2497.9362633511 922172.86956522 
2522.9156259846 726776.59259259 
2548.1447822445    1062992.5 
2573.6262300669      1116850 
2599.3624923676 906335.66666667 
2625.3561172913      1741570 
2651.6096784642 2043626.6666667 
2678.1257752488      1960005 
2704.9070330013 1730063.3333333 
2731.9561033313      1454800 
2759.2756643647 1731056.6666667 
2786.8684210083       403600 
2814.7371052184 2193556.6666667 
2842.8844762706      1813530 
2871.3133210333      2386560 
2900.0264542436      2871800 
2929.026718786      2749720 
2958.3169859739      2877720 
2987.9001558336      2941385 
3017.779157392      3034110 
3047.9569489659      3110060 
3078.4365184556      3008000 
3109.2208836401      3042605 
3140.3130924765      3043415 
3171.7162234013      2966610 
3203.4333856353      3146875 
3235.4677194916      3500380 
3267.8223966866      3835755 
3300.5006206534      3819925 
3333.50562686      3755050 
3366.8406831286      3455545 
3400.5090899598      3859455 
3434.5141808594      3980160 
3468.859322668      4075155 
3503.5479158947      4177745 
3538.5833950537      4286390 
3573.9692290042      4040570 
3609.7089212942      4232518 
3645.8060105072 4526586.6666667 
3682.2640706123      4621155 
3719.0867113184      4801175 
3756.2775784316      5467870 
3793.8403542159      5454755 
3831.778757758      5805680 
3870.0965453356      5402710 
3908.797510789      4901370 
3947.8854858969      5103355 
3987.3643407558      6372825 
4027.2379841634      6428270 
4067.510364005      6472430 
4108.1854676451      6417495 
4149.2673223215 6551226.6666667 
4190.7599955447      6356740 
4232.6675955002      6263775 
4274.9942714552      5460135 
4317.7442141697      6215655 
4360.9216563114      6405025 
4404.5308728746      6628530 
4448.5761816033      6757770 
4493.0619434193      6869565 
4537.9925628535      6888765 
4583.3724884821      6909870 
4629.2062133669      6950550 
4675.4982755006      6945110 
4722.2532582556      6971540 
4769.4757908381      6947200 
4817.1705487465      6854695 
4865.342254234 6626103.3333333 
4913.9956767763      6743680 
4963.1356335441      6698630 
5012.7669898795      6711500 
5062.8946597783 6712583.3333333 
5113.5236063761      6588630 
5164.6588424398 6405266.6666667 
5216.3054308642      6561390 
5268.4684851729      6501130 
5321.1531700246      6473350 
5374.3647017249      6429020 
5428.1083487421      6427870 
5482.3894322295 6417316.6666667 
5537.2133265518 6360276.6666667 
5592.5854598173      6328105 
5648.5113144155      6298100 
5704.9964275597      6256130 
5762.0463918353 6213146.6666667 
5819.6668557536      6153330 
5877.8635243112 6058576.6666667 
5936.6421595543 6038023.3333333 
5996.0085811498 5970886.6666667 
6055.9686669613      5912760 
6116.5283536309 5788543.3333333 
6177.6936371672 5773783.3333333 
6239.4705735389 5703963.3333333 
6301.8652792743      5650230 
6364.883932067 5592426.6666667 
6428.5327713877      5497330 
6492.8180991016 5441183.3333333 
6557.7462800926      5216750 
6623.3237428935      5345140 
6689.5569803225    5281497.5 
6756.4525501257 5210263.3333333 
6824.0170756269      5140520 
6892.2572463832 5073096.6666667 
6961.179818847      5002795 
7030.7916170355 4936593.3333333 
7101.0995332059      4862170 
7172.1105285379 4786916.6666667 
7243.8316338233    4730702.5 
7316.2699501615      4667980 
7389.4326496631      4590745 
7463.3269761598      4526720 
7537.9602459214    4458332.5 
7613.3398483806      4390020 
7689.4732468644      4327715 
7766.367979333    4264292.5 
7844.0316591264    4198107.5 
7922.4719757176      4124250 
8001.6966954748      4060665 
8081.7136624296      3997720 
8162.5307990539      3921475 
8244.1561070444      3868140 
8326.5976681148    3792877.5 
8409.863644796      3728388 
8493.9622812439    3578847.5 
8578.9019040564      3605385 
8664.6909230969      3486364 
8751.3378323279      3478080 
8838.8512106512    3412562.5 
8927.2397227577      3352650 
9016.5121199853      3297845 
9106.6772411851      3250508 
9197.744013597    3163037.5 
9289.721453733      3136166 
9382.6186682703      3067882 
9476.444854953      2996244 
9571.2093035025    2957302.5 
9666.9213965375      2905284 
9763.5906105029      2850500 
9861.226516608      2794234 
9959.838781774 2742856.6666667 
10059.437169592      2677605 
10160.031541288      2639440 
10261.631856701      2587850 
10364.248175268      2540475 
10467.89065702      2490775 
10572.56956359 2425746.6666667 
10678.295259226      2370390 
10785.078211819      2320715 
10892.928993937      2264490 
11001.858283876      2247840 
11111.876866715      2206010 
11222.995635382      2155390 
11335.225591736      2105410 
11448.577847653      2072805 
11563.06362613 2022296.6666667 
11678.694262391      1979440 
11795.481205015      1939100 
11913.436017065 1900123.3333333 
12032.570377236      1861780 
12152.896081008      1835900 
12274.425041818 1797096.6666667 
12397.169292236      1760660 
12521.140985159      1724600 
12646.35239501      1690235 
12772.81591896 1637806.6666667 
12900.54407815 1617993.3333333 
13029.549518932      1586005 
13159.845014121 1555136.6666667 
13291.443464262      1526910 
13424.357898905 1499296.6666667 
13558.601477894 1465406.6666667 
13694.187492673 1433656.6666667 
13831.129367599      1408650 
13969.440661275 1383443.3333333 
14109.135067888      1353600 
14250.226418567      1325720 
14392.728682753      1295580 
14536.65596958 1272027.6666667 
14682.022529276 1245816.6666667 
14828.842754569      1219160 
14977.131182115 1191736.6666667 
15126.902493936      1172260 
15278.171518875      1147350 
15430.953234064 1123166.6666667 
15585.262766404 1097893.3333333 
15741.115394068 1067146.6666667 
15898.526548009      1051590 
16057.511813489      1010120 
16218.086931624    1001485.5 
16380.26780094       951814 
16544.07047895       946839 
16709.511183739     891906.5 
16876.606295577       880961 
17045.372358532     853212.5 
17215.826082118     804687.5 
17387.984342939     786034.5 
17561.864186368       763757 
17737.482828232     741831.5 
17914.857656514       713182 
18094.006233079       672818 
18274.94629541     659270.5 
18457.695758364       640863 
18642.272715948       608964 
18828.695443107     598045.5 
19016.982397539     577584.5 
19207.152221514     556002.5 
19399.223743729       526079 
19593.215981166       516316 
19789.148140978     498427.5 
19987.039622388     481315.5 
20186.910018612     463999.5 
20388.779118798     448360.5 
20592.666909986     432543.5 
20798.593579086     417829.5 
21006.579514877       403861 
21216.645310025     390265.5 
21428.811763126       377286 
21643.099880757 357479.66666667 
21859.530879564     346849.5 
22078.12618836       335787 
22298.907450244       325002 
22521.896524746     314470.5 
22747.115489993 302400.66666667 
22974.586644893       290797 
23204.332511342       281628 
23436.375836456       270936 
23670.73959482       260465 
23907.446990769       252665 
24146.521460676 243100.33333333 
24387.986675283       233990 
24631.866542036 225345.33333333 
24878.185207456       217185 
25126.967059531 209337.33333333 
25378.236730126       202055 
25632.019097427       194484 
25888.339288402       188058 
26147.222681286 179247.66666667 
26408.694908098       173827 
26672.781857179     167161.5 
26939.509675751 162464.33333333 
27208.904772509 155944.33333333 
27480.993820234 148971.66666667 
27755.803758436     144793.5 
28033.361796021 140058.66666667 
28313.695413981 134622.66666667 
28596.832368121 128715.66666667 
28882.800691802       124519 
29171.62869872 119803.66666667 
29463.344985707 115337.66666667 
29757.978435564 111062.66666667 
30055.55821992       106505 
30356.113802119 102942.33333333 
30659.67494014 99360.566666667 
30966.271689541 95768.233333333 
31275.934406437 92389.433333333 
31588.693750501 89157.866666667 
31904.580688006     86160.24 
32223.626494886     82603.35 
32545.862759835      79775.4 
32871.321387434      76687.2 
33200.034601308     73637.45 
33532.034947321      71200.1 
33867.355296794     68820.65 
34206.028849762      65876.4 
34548.08913826      63745.2 
34893.570029642      61699.4 
35242.505729939     59089.25 
35594.930787238      56610.7 
35950.880095111      54289.7 
36310.388896062      52591.1 
36673.492785022     50963.35 
37040.227712872     48876.95 
37410.629990001      46812.9 
37784.736289901     45111.85 
38162.5836528     43360.65 
38544.209489328     41681.65 
38929.651584221      40065.3 
39318.948100064     38563.35 
39712.137581064     37089.45 
40109.258956875        35556 
40510.351546444     34401.05 
40915.455061908        33147 
41324.609612527      31902.1 
41737.855708653      30781.5 
42155.234265739     29698.25 
42576.786608396      28639.8 
43002.55447448     27595.05 
43432.580019225     26547.25 
43866.905819417 25417.233333333 
44305.574877612     24314.95 
44748.630626388      23491.1 
45196.116932652      22704.2 
45648.078101978 21785.133333333 
46104.558882998      20845.7 
46565.604471828      20211.8 
47031.260516546 19454.733333333 
47501.573121712     18689.15 
47976.588852929     18097.25 
48456.354741458 17393.766666667 
48940.918288873        16724 
49430.327471761 16086.066666667 
49924.630746479        15476 
50423.877053944 14896.366666667 
50928.115824483     14315.65 
51437.396982728 13821.233333333 
51951.770952555      13316.4 
52471.288662081 12840.166666667 
52996.001548702      12294.5 
53525.961564189     11858.95 
54061.221179831      11446.4 
54601.833391629 10971.366666667 
55147.851725545     10594.15 
55699.330242801      10235.6 
56256.323545229      9824.28 
56818.886780681 9429.5633333333 
57387.075648488 9059.0566666667 
57960.946404973      8704.44 
58540.555869022 8355.4366666667 
59125.961427713 8041.2233333333 
59717.22104199      7738.32 
60314.39325241 7446.0266666667 
60917.537184934      7167.26 
61526.712556783      6902.47 
62141.979682351 6647.8866666667 
62763.399479174      6403.55 
63391.033473966 6175.7066666667 
64024.943808706 5909.0442857143 
64665.193246793      5708.83 
65311.845179261      5509.75 
65964.963631053      5256.14 
66624.613267364      5074.98 
67290.859400038     4900.245 
67963.767994038     4683.175 
68643.405673978       4526.3 
69329.839730718      4376.55 
70023.138128025      4186.06 
70723.369509305      4006.01 
71430.603204399      3876.89 
72144.909236443     3753.445 
72866.358328807     3596.115 
73595.021912095     3446.985 
74330.972131216      3296.38 
75074.281852528     3171.115 
75825.024671053      3074.61 
76583.274917764     2982.145 
77349.107666942      2863.85 
78122.598743611      2751.61 
78903.824731047     2644.705 
79692.862978358      2542.92 
80489.791608141      2445.98 
81294.689524223       2353.3 
82107.636419465     2265.605 
82928.712783659      2181.64 
83757.999911496     2101.565 
84595.579910611      2006.72 
85441.535709717      1916.83 
86295.951066814      1848.33 
87158.910577482     1782.495 
88030.499683257     1721.135 
88910.80468009     1661.515 
89799.912726891      1590.68 
90697.91185416      1523.31 
91604.890972701      1472.14 
92520.939882428 1411.1966666667 
93446.149281253      1352.81 
94380.610774065      1308.99 
95324.416881806      1256.34 
96277.661050624       1206.1 
97240.43766113 1158.5533333333 
98212.842037741      1113.19 
99194.970458119     1078.535 
100186.9201627      1053.45 
199060.83304441      69.0074 
399467.9878358      4.38467 
594753.39981818     0.867839 
793700.71765891     0.274265 
997811.18987739       0.1121 
1193529.3359837      0.05393 
1399507.0114645     0.029039 
