#  WAVELENGTH	        FLUX	
#  (ANGSTROM)	(ERG/CM2/S/A)	
############	############	
        90.9  3.58402E-13 
    92.72709  1.66081E-12 
95.53681355409  7.10202E-12 
97.457103506527  1.67386E-11 
99.415991287008  4.47626E-11 
101.41425271188  1.47459E-10 
103.45267919139  3.48701E-10 
105.53207804313  8.01849E-10 
107.6532728118   2.04847E-9 
109.81710359532   6.51017E-9 
113.14467165136   2.80669E-8 
117.73879903054   1.20082E-7 
120.10534889105    4.2513E-7 
123.7446610678   1.40951E-6 
126.23192875526   2.99553E-6 
127.49424804281   4.53634E-6 
130.05688242847    8.7266E-6 
131.35745125276   1.55197E-5 
132.67102576529   2.41912E-5 
135.33771338317   5.26283E-5 
139.43858143639  0.000127647 
142.24129692326  0.000322703 
146.55135046134  0.000864583 
150.99200293167   0.00215982 
154.02694219059   0.00566056 
158.69411256591     0.012455 
161.88386422848    0.0244407 
165.13772989948    0.0548608 
170.14156825316      0.12571 
171.84298393569     0.223125 
175.2970279128     0.409522 
178.82049817385     0.735292 
180.60870315558     0.945587 
186.0813274699      1.93449 
189.82156215205      4.13432 
193.6369755513      6.36762 
197.52907875988      12.1424 
201.49941324296      19.4058 
203.51440737539      29.7467 
209.68109743327      60.1516 
216.03464436659      120.122 
218.19499081026      182.532 
222.58071012555      261.709 
224.8065172268      395.924 
229.32512822306      59759.7 
233.93456330034       387656 
238.63664802268      1189840 
245.86757709442      3020620 
250.80951539401      5183020 
255.85078665343      3961130 
258.40929451997     10117100 
263.60332133982     17816000 
266.23935455322     26191600 
271.59076557974     31945600 
277.04973996789     32272400 
282.61843974125     52121900 
288.29907038004     58059600 
294.09388169468     49920500 
300.00516871675     31176000 
306.03527260795     54450100 
315.30844740325    121933000 
324.86260866801    144205000 
334.70627057326    181575000 
344.8482052779    225312000 
355.29745074603    258304000 
362.43892950602    318949000 
373.42119150899    362653000 
384.7362270329    438554000 
392.46942519626    521834000 
404.36164124913    608282000 
412.48931023824    704506000 
420.78034537403    777623000 
429.23803031605    863261000 
437.8657147254   1013730000 
446.66681559138   1152410000 
455.64481858477   1268280000 
469.4513122327   1446160000 
478.88728360858   1620610000 
488.51291800911   1773660000 
498.3320276611   2005710000 
503.31534793771   6057730000 
508.34850141708  20155500000 
518.56630629557  19396600000 
528.98948905211  19314000000 
539.62217778206  17359800000 
545.01839955988  18748100000 
555.97326939103  20245600000 
567.14833210579  20378700000 
578.54801358112  19119800000 
584.33349371693  19894900000 
596.07859694064  19213200000 
608.05977673914  19408500000 
614.14037450653  20466300000 
626.48459603412  20334300000 
639.0769364144  20069900000 
645.46770577855  20134800000 
651.92238283633  19688200000 
658.44160666469  19942100000 
671.67628295866  20187400000 
678.39304578824  19206400000 
692.02874600859  20219100000 
698.94903346867  19521500000 
712.99790904139  20352000000 
720.12788813181  20243300000 
734.60245868325  20452800000 
741.94848327009  20187800000 
749.36796810279  20115200000 
764.43026426165  19969300000 
772.07456690427  20023100000 
779.79531257331  20257200000 
787.59326569905  20157900000 
803.4238903396  20025800000 
811.45812924299  20049000000 
819.57271053542  20189100000 
827.76843764078  19150900000 
844.40658323736  20016100000 
852.85064906973  19950600000 
861.37915556043  20037200000 
869.99294711603  19984900000 
878.69287658719  19941200000 
887.47980535306  19906300000 
896.3546034066  19680000000 
914.37133093507  19168900000 
923.51504424442  42995000000 
932.75019468686  66083300000 
942.07769663373 103431000000 
951.49847360007 116742000000 
961.01345833607 145146000000 
970.62359291943  86888200000 
980.32982884862 142414000000 
990.13312713711 129504000000 
1000.0344584085 136436000000 
1010.0348029926 131944000000 
1020.1351510225  81529800000 
1030.3365025327 123739000000 
1040.639867558 129048000000 
1051.0462662336 126058000000 
1061.556728896 118869000000 
1072.1722961849 117401000000 
1082.8940191468 106930000000 
1093.7229593382 113425000000 
1104.6601889316 107699000000 
1115.7067908209 100042000000 
1126.8638587291 102144000000 
1138.1324973164  98882000000 
1149.5138222896  96106900000 
1161.0089605125  93817400000 
1172.6190501176  81312400000 
1184.3452406188  86741050000 
1196.188693025  81117500000 
1208.1505799552  52642400000 
1220.2320857548  77631900000 
1232.4344066123  79044800000 
1244.7587506785  76379300000 
1257.2063381852  74796400000 
1269.7784015671  73236000000 
1282.4761855828  70082800000 
1295.3009474386  67560600000 
1308.253956913  67029100000 
1321.3364964821  65105000000 
1334.5498614469  62857500000 
1347.8953600614  61117200000 
1361.374313662  59604400000 
1374.9880567986  57613250000 
1388.7379373666  53936000000 
1402.6253167403  53133850000 
1416.6515699077  51330800000 
1430.8180856068 50755182352.941 
1445.1262664628 49164823076.923 
1459.5775291275  47864000000 
1474.1733044187  46423300000 
1488.9150374629  44945800000 
1503.8041878376 43654927272.727 
1518.8422297159  42103200000 
1534.0306520131  39297350000 
1549.3709585332  37787900000 
1564.8646681186  37668150000 
1580.5133147997  36766850000 
1596.3184479477  34940800000 
1612.2816324272  33835600000 
1628.4044487515  32757100000 
1644.688493239  31726600000 
1661.1353781714 31418509090.909 
1677.7467319531  30852500000 
1694.5241992726  29938000000 
1711.4694412654  28490400000 
1728.584135678  27953200000 
1745.8699770348  27057100000 
1763.3286768051  26462550000 
1780.9619635732  25566200000 
1798.7715832089  24689600000 
1816.759299041  23998700000 
1834.9268920314  23399500000 
1853.2761609517  22468900000 
1871.8089225613  21735700000 
1890.5270117869  21016950000 
1909.4322819047  20183150000 
1928.5266047238  19697350000 
1947.811870771 18952072727.273 
1967.2899894787 18474476470.588 
1986.9628893735 17827080952.381 
2006.8325182673  17324800000 
2026.9008434499  16751350000 
2047.1698518844  13715200000 
2067.6415504033  13523685000 
2088.3179659073  14662350000 
2109.2011455664  14783350000 
2130.293157022  14326900000 
2151.5960885923  13877900000 
2173.1120494782  13489400000 
2194.843169973 13020233333.333 
2216.7916016727  12623700000 
2238.9595176894  12110250000 
2261.3491128663  11888450000 
2283.962603995  11302900000 
2306.8022300349  11030800000 
2329.8702523353  10718150000 
2353.1689548586 10335866666.667 
2376.7006444072   9846935000 
2400.4676508513   9687525000 
2424.4723273598 9350646666.6667 
2448.7170506334   9026900000 
2473.2042211397 8618163333.3333 
2497.9362633511 8264613913.0435 
2522.9156259846 8126879259.2593 
2548.1447822445   7867785000 
2573.6262300669   7609030000 
2599.3624923676 7330586666.6667 
2625.3561172913   7090600000 
2651.6096784642   6850530000 
2678.1257752488   6630360000 
2704.9070330013 6422006666.6667 
2731.9561033313   6154720000 
2759.2756643647   5949800000 
2786.8684210083   5768775000 
2814.7371052184 5580506666.6667 
2842.8844762706 5397223333.3333 
2871.3133210333 5202876666.6667 
2900.0264542436   5046740000 
2929.026718786   4855560000 
2958.3169859739   4697540000 
2987.9001558336   4532790000 
3017.779157392   4375470000 
3047.9569489659   4228410000 
3078.4365184556   4082120000 
3109.2208836401   3948705000 
3140.3130924765   3774600000 
3171.7162234013   3625600000 
3203.4333856353   3517330000 
3235.4677194916   3416370000 
3267.8223966866   3306445000 
3300.5006206534   3168955000 
3333.50562686   3064480000 
3366.8406831286   2973395000 
3400.5090899598   2847920000 
3434.5141808594   2749550000 
3468.859322668   2671720000 
3503.5479158947   2567700000 
3538.5833950537   2471800000 
3573.9692290042   2389070000 
3609.7089212942   2314416000 
3645.8060105072 2175553333.3333 
3682.2640706123   2095395000 
3719.0867113184   2007160000 
3756.2775784316   1945320000 
3793.8403542159   1901035000 
3831.778757758   2004640000 
3870.0965453356   1688500000 
3908.797510789   1948120000 
3947.8854858969   1726605000 
3987.3643407558   1808720000 
4027.2379841634   1733215000 
4067.510364005   1651135000 
4108.1854676451   1520765000 
4149.2673223215 1572543333.3333 
4190.7599955447   1507230000 
4232.6675955002   1457530000 
4274.9942714552   1402325000 
4317.7442141697   1225755000 
4360.9216563114   1293905000 
4404.5308728746   1269035000 
4448.5761816033   1203730000 
4493.0619434193   1168885000 
4537.9925628535   1127240000 
4583.3724884821   1094705000 
4629.2062133669 1048993333.3333 
4675.4982755006    996540500 
4722.2532582556    978693500 
4769.4757908381    940616000 
4817.1705487465    873805000 
4865.342254234 828978333.33333 
4913.9956767763    828987500 
4963.1356335441    804420000 
5012.7669898795    775663500 
5062.8946597783 748815666.66667 
5113.5236063761    721669500 
5164.6588424398    695824000 
5216.3054308642    671063000 
5268.4684851729 647460666.66667 
5321.1531700246 620465666.66667 
5374.3647017249    596867000 
5428.1083487421 578509666.66667 
5482.3894322295 555037666.66667 
5537.2133265518    532724000 
5592.5854598173    514985000 
5648.5113144155 497538666.66667 
5704.9964275597 473396333.33333 
5762.0463918353    455311000 
5819.6668557536 434626333.33333 
5877.8635243112    422001000 
5936.6421595543    407614000 
5996.0085811498    393857000 
6055.9686669613    379717000 
6116.5283536309    365810000 
6177.6936371672    352545000 
6239.4705735389    339866000 
6301.8652792743    327755000 
6364.883932067    316178000 
6428.5327713877    303321750 
6492.8180991016 287091333.33333 
6557.7462800926    269510000 
6623.3237428935 270782666.66667 
6689.5569803225    260330250 
6756.4525501257 250841333.33333 
6824.0170756269    241163500 
6892.2572463832    232006000 
6961.179818847    223264500 
7030.7916170355 214055333.33333 
7101.0995332059    206919750 
7172.1105285379 199309666.66667 
7243.8316338233    191824250 
7316.2699501615    185192000 
7389.4326496631    178589500 
7463.3269761598    171385750 
7537.9602459214    164493750 
7613.3398483806 158844666.66667 
7689.4732468644    153386500 
7766.367979333    147420000 
7844.0316591264    141834250 
7922.4719757176    136426000 
8001.6966954748    131282500 
8081.7136624296    126289500 
8162.5307990539    121224000 
8244.1561070444    116557750 
8326.5976681148    112309500 
8409.863644796    107775800 
8493.9622812439    103514250 
8578.9019040564     99589000 
8664.6909230969     95344740 
8751.3378323279     92866100 
8838.8512106512     87873200 
8927.2397227577     85683500 
9016.5121199853     82604575 
9106.6772411851     81104000 
9197.744013597     74347325 
9289.721453733     75328560 
9382.6186682703     72399400 
9476.444854953     66399820 
9571.2093035025     66708600 
9666.9213965375     64661160 
9763.5906105029     62173660 
9861.226516608     59764180 
9959.838781774 56456766.666667 
10059.437169592     53808100 
10160.031541288     53410450 
10261.631856701     51339950 
10364.248175268     49524350 
10467.89065702     47710800 
10572.56956359     45545500 
10678.295259226     43528650 
10785.078211819     41715250 
10892.928993937     38552400 
11001.858283876     38955200 
11111.876866715     37743250 
11222.995635382     36135600 
11335.225591736     34612950 
11448.577847653     33452450 
11563.06362613     32053600 
11678.694262391     30754650 
11795.481205015     29752250 
11913.436017065 28470566.666667 
12032.570377236     27419950 
12152.896081008     26550850 
12274.425041818 25513966.666667 
12397.169292236     24524200 
12521.140985159 23572966.666667 
12646.35239501     22669900 
12772.81591896 21120833.333333 
12900.54407815     20814800 
13029.549518932     20092700 
13159.845014121 19359733.333333 
13291.443464262     18657800 
13424.357898905     17985800 
13558.601477894 17224833.333333 
13694.187492673 16500766.666667 
13831.129367599     15925350 
13969.440661275 15376366.666667 
14109.135067888     14747600 
14250.226418567 14150633.333333 
14392.728682753 13583566.666667 
14536.65596958     13043130 
14682.022529276     12528900 
14828.842754569     12046100 
14977.131182115 11577833.333333 
15126.902493936 11142066.666667 
15278.171518875 10720333.333333 
15430.953234064     10317000 
15585.262766404 9929786.6666667 
15741.115394068 9559593.3333333 
15898.526548009 9177382.8571429 
16057.511813489      8794920 
16218.086931624      8516730 
16380.26780094      8143350 
16544.07047895      7964975 
16709.511183739      7485605 
16876.606295577      7330910 
17045.372358532      7075360 
17215.826082118      6663475 
17387.984342939      6451760 
17561.864186368      6260060 
17737.482828232      6054845 
17914.857656514      5788035 
18094.006233079      5424745 
18274.94629541      5311495 
18457.695758364      5143030 
18642.272715948      4864870 
18828.695443107      4773010 
19016.982397539      4575490 
19207.152221514      4388450 
19399.223743729      4125160 
19593.215981166      4056235 
19789.148140978      3897515 
19987.039622388      3746430 
20186.910018612      3602620 
20388.779118798      3463415 
20592.666909986      3335085 
20798.593579086      3210630 
21006.579514877      3088040 
21216.645310025      2978655 
21428.811763126      2864385 
21643.099880757 2696806.6666667 
21859.530879564      2620860 
22078.12618836      2528595 
22298.907450244      2440465 
22521.896524746      2356045 
22747.115489993      2255770 
22974.586644893      2160370 
23204.332511342      2088080 
23436.375836456 2001886.6666667 
23670.73959482      1919790 
23907.446990769      1857410 
24146.521460676 1785486.6666667 
24387.986675283      1714400 
24631.866542036 1645533.3333333 
24878.185207456      1581070 
25126.967059531      1519690 
25378.236730126      1462150 
25632.019097427 1405713.3333333 
25888.339288402      1351530 
26147.222681286      1278400 
26408.694908098 1244396.6666667 
26672.781857179      1194430 
26939.509675751 1157976.6666667 
27208.904772509 1107486.6666667 
27480.993820234      1054340 
27755.803758436      1024085 
28033.361796021 988511.33333333 
28313.695413981 947326.33333333 
28596.832368121       899979 
28882.800691802       872387 
29171.62869872       837512 
29463.344985707 804350.33333333 
29757.978435564       772817 
30055.55821992 737216.33333333 
30356.113802119 710334.33333333 
30659.67494014       687054 
30966.271689541       661135 
31275.934406437 636431.33333333 
31588.693750501 612873.66666667 
31904.580688006       591105 
32223.626494886     565441.5 
32545.862759835       544720 
32871.321387434     518891.5 
33200.034601308     501335.5 
33532.034947321       484012 
33867.355296794       467276 
34206.028849762     446028.5 
34548.08913826       430862 
34893.570029642       416380 
35242.505729939     397989.5 
35594.930787238     380574.5 
35950.880095111     364117.5 
36310.388896062       352313 
36673.492785022       341045 
37040.227712872     324435.5 
37410.629990001       310432 
37784.736289901     300172.5 
38162.5836528       287896 
38544.209489328       276272 
38929.651584221     265108.5 
39318.948100064     254710.5 
39712.137581064     244521.5 
40109.258956875       232229 
40510.351546444     226018.5 
40915.455061908     217488.5 
41324.609612527     208760.5 
41737.855708653       201409 
42155.234265739     194009.5 
42576.786608396       186833 
43002.55447448     180107.5 
43432.580019225       172965 
43866.905819417 165713.66666667 
44305.574877612       158649 
44748.630626388       153140 
45196.116932652     147832.5 
45648.078101978       141518 
46104.558882998       133669 
46565.604471828     129705.5 
47031.260516546       125548 
47501.573121712       120385 
47976.588852929       116450 
48456.354741458       111763 
48940.918288873     107293.5 
49430.327471761 103059.33333333 
49924.630746479      99019.2 
50423.877053944      95186.1 
50928.115824483     90612.45 
51437.396982728 87970.233333333 
51951.770952555     84730.05 
52471.288662081 81572.533333333 
52996.001548702      77969.6 
53525.961564189     75113.15 
54061.221179831 72395.166666667 
54601.833391629      69288.3 
55147.851725545     66821.95 
55699.330242801 64471.866666667 
56256.323545229      61781.6 
56818.886780681      59228.9 
57387.075648488 56808.666666667 
57960.946404973 54514.066666667 
58540.555869022 51888.966666667 
59125.961427713      50120.2 
59717.22104199 48287.466666667 
60314.39325241 46409.466666667 
60917.537184934      44621.1 
61526.712556783      42917.5 
62141.979682351      41282.8 
62763.399479174 39661.333333333 
63391.033473966      38273.4 
64024.943808706 36573.457142857 
64665.193246793      35302.1 
65311.845179261      34032.9 
65964.963631053        32423 
66624.613267364      31274.6 
67290.859400038     30080.05 
67963.767994038     28796.25 
68643.405673978      27805.7 
69329.839730718     26862.15 
70023.138128025     25662.15 
70723.369509305     24528.35 
71430.603204399      23717.2 
72144.909236443     22942.45 
72866.358328807     21956.05 
73595.021912095      21007.5 
74330.972131216     19729.65 
75074.281852528     19267.85 
75825.024671053      18696.3 
76583.274917764        18120 
77349.107666942     17383.85 
78122.598743611     16685.15 
78903.824731047      16021.2 
79692.862978358     15389.85 
80489.791608141      14789.1 
81294.689524223        14217 
82107.636419465      13672.9 
82928.712783659     13154.35 
83757.999911496     12660.15 
84595.579910611 12075.566666667 
85441.535709717     11522.15 
86295.951066814     11091.15 
87158.910577482        10621 
88030.499683257     10319.95 
88910.80468009     9954.275 
89799.912726891      9520.49 
90697.91185416     9108.715 
91604.890972701     8795.415 
92520.939882428      8423.33 
93446.149281253      8048.59 
94380.610774065     7800.165 
95324.416881806 7479.6833333333 
96277.661050624      7174.39 
97240.43766113      6885.51 
98212.842037741     6609.945 
99194.970458119      6399.94 
100186.9201627      6247.55 
199060.83304441      389.239 
399467.9878358      23.8094 
594753.39981818      4.63305 
793700.71765891      1.44947 
997811.18987739     0.588454 
1193529.3359837     0.281763 
1399507.0114645     0.151171 
