#  WAVELENGTH	        FLUX	
#  (ANGSTROM)	(ERG/CM2/S/A)	
############	############	
384.7362270329  4.83337E-24 
392.46942519626   3.1423E-23 
404.36164124913  1.85321E-22 
412.48931023824  8.47288E-22 
420.78034537403  3.08708E-21 
429.23803031605  1.06886E-20 
437.8657147254  5.45334E-20 
446.66681559138  2.22833E-19 
455.64481858477  7.48207E-19 
469.4513122327    2.713E-18 
478.88728360858  9.28484E-18 
488.51291800911  3.01291E-17 
498.3320276611  9.28715E-17 
503.31534793771  2.36615E-16 
508.34850141708  5.02644E-16 
518.56630629557  1.14202E-15 
528.98948905211  3.08975E-15 
539.62217778206  7.90565E-15 
545.01839955988  1.97332E-14 
555.97326939103  4.72632E-14 
567.14833210579  1.09482E-13 
578.54801358112  2.42971E-13 
584.33349371693  5.35192E-13 
596.07859694064  1.13302E-12 
608.05977673914   2.3348E-12 
614.14037450653  4.68932E-12 
626.48459603412   9.1914E-12 
639.0769364144  1.76123E-11 
645.46770577855  3.30131E-11 
651.92238283633  5.37498E-11 
658.44160666469  8.14626E-11 
671.67628295866  1.45119E-10 
678.39304578824  2.53725E-10 
692.02874600859  4.35721E-10 
698.94903346867  7.35451E-10 
712.99790904139   1.28402E-9 
720.12788813181   2.09595E-9 
734.60245868325   3.21719E-9 
741.94848327009   5.10966E-9 
749.36796810279   8.00419E-9 
764.43026426165   1.23732E-8 
772.07456690427   1.88859E-8 
779.79531257331   2.84768E-8 
787.59326569905   4.24131E-8 
803.4238903396   6.25244E-8 
811.45812924299   9.11504E-8 
819.57271053542   1.31508E-7 
827.76843764078   1.87872E-7 
844.40658323736   2.65807E-7 
852.85064906973   3.72585E-7 
861.37915556043   5.17598E-7 
869.99294711603   7.12742E-7 
878.69287658719   9.73591E-7 
887.47980535306   1.31917E-6 
896.3546034066   1.77348E-6 
914.37133093507   0.00538124 
923.51504424442    0.0251908 
932.75019468686    0.0349924 
942.07769663373    0.0503447 
951.49847360007    0.0702591 
961.01345833607    0.0931929 
970.62359291943     0.105958 
980.32982884862     0.158648 
990.13312713711     0.202897 
1000.0344584085      0.26752 
1010.0348029926     0.319771 
1020.1351510225     0.346956 
1030.3365025327     0.528543 
1040.639867558     0.710388 
1051.0462662336     0.859013 
1061.556728896      1.09556 
1072.1722961849      1.38131 
1082.8940191468      1.75161 
1093.7229593382      2.10506 
1104.6601889316     5.401735 
1115.7067908209      8.92575 
1126.8638587291       12.472 
1138.1324973164      15.0313 
1149.5138222896      16.3194 
1161.0089605125      19.0086 
1172.6190501176      21.1346 
1184.3452406188     19.28905 
1196.188693025      11.3969 
1208.1505799552      5.62815 
1220.2320857548      14.1677 
1232.4344066123      31.0504 
1244.7587506785      61.8406 
1257.2063381852      97.0203 
1269.7784015671      126.765 
1282.4761855828     200.9375 
1295.3009474386      282.887 
1308.253956913      338.163 
1321.3364964821      410.953 
1334.5498614469      521.685 
1347.8953600614       638.69 
1361.374313662      771.021 
1374.9880567986     918.0815 
1388.7379373666      1112.58 
1402.6253167403     1345.325 
1416.6515699077      1581.19 
1430.8180856068      1848.66 
1445.1262664628 2180.5192307692 
1459.5775291275      2410.05 
1474.1733044187     2874.575 
1488.9150374629      3395.75 
1503.8041878376 3969.9945454545 
1518.8422297159      4577.71 
1534.0306520131      5424.65 
1549.3709585332       6040.4 
1564.8646681186      6510.14 
1580.5133147997      7892.14 
1596.3184479477      8778.04 
1612.2816324272     10514.04 
1628.4044487515      13292.7 
1644.688493239     16534.25 
1661.1353781714 25766.559090909 
1677.7467319531      56197.3 
1694.5241992726     193728.5 
1711.4694412654       787117 
1728.584135678      1558975 
1745.8699770348      2174870 
1763.3286768051      1928745 
1780.9619635732      2819025 
1798.7715832089      2799910 
1816.759299041      2585610 
1834.9268920314      2549320 
1853.2761609517      2961275 
1871.8089225613      3288735 
1890.5270117869      3522140 
1909.4322819047      3892370 
1928.5266047238      3651950 
1947.811870771 4672872.7272727 
1967.2899894787 4671207.0588235 
1986.9628893735 4519087.1428571 
2006.8325182673      4300820 
2026.9008434499      5129885 
2047.1698518844      5232860 
2067.6415504033    5994935.5 
2088.3179659073      5622370 
2109.2011455664      5855005 
2130.293157022      5650640 
2151.5960885923      5745145 
2173.1120494782      5838505 
2194.843169973      6385040 
2216.7916016727      6783985 
2238.9595176894      6441460 
2261.3491128663      6172940 
2283.962603995      6630070 
2306.8022300349      6856030 
2329.8702523353      5655555 
2353.1689548586 6388846.6666667 
2376.7006444072      5185735 
2400.4676508513      5645645 
2424.4723273598 7202086.6666667 
2448.7170506334      7545375 
2473.2042211397 6596703.3333333 
2497.9362633511 7015746.9565217 
2522.9156259846 5795027.4074074 
2548.1447822445      6707905 
2573.6262300669      7683240 
2599.3624923676 7243966.6666667 
2625.3561172913      9216715 
2651.6096784642 9861896.6666667 
2678.1257752488      9761565 
2704.9070330013 8983553.3333333 
2731.9561033313 8337366.6666667 
2759.2756643647 9345726.6666667 
2786.8684210083      4672310 
2814.7371052184 10635833.333333 
2842.8844762706 9165806.6666667 
2871.3133210333 10450533.333333 
2900.0264542436     11508200 
2929.026718786     11095800 
2958.3169859739     11289600 
2987.9001558336     11299050 
3017.779157392     11451400 
3047.9569489659     11735500 
3078.4365184556     11787900 
3109.2208836401     11797800 
3140.3130924765     12042350 
3171.7162234013     11497600 
3203.4333856353     11557450 
3235.4677194916     11943700 
3267.8223966866     12522150 
3300.5006206534     12603900 
3333.50562686     12408900 
3366.8406831286     12149600 
3400.5090899598     12347550 
3434.5141808594     12332600 
3468.859322668     12435500 
3503.5479158947     12495750 
3538.5833950537     12566000 
3573.9692290042     12156300 
3609.7089212942     12421040 
3645.8060105072     12881500 
3682.2640706123     12497750 
3719.0867113184     12576400 
3756.2775784316     14260300 
3793.8403542159     14716900 
3831.778757758     16587500 
3870.0965453356     13863200 
3908.797510789     15620500 
3947.8854858969     14855950 
3987.3643407558     17362600 
4027.2379841634     17420100 
4067.510364005     16803300 
4108.1854676451     15821650 
4149.2673223215     17141600 
4190.7599955447     16797350 
4232.6675955002     16744200 
4274.9942714552     16237400 
4317.7442141697     14827250 
4360.9216563114     16531650 
4404.5308728746     16443950 
4448.5761816033 16366433.333333 
4493.0619434193     16308550 
4537.9925628535     16186500 
4583.3724884821     16117300 
4629.2062133669     15998500 
4675.4982755006     15783000 
4722.2532582556     15724900 
4769.4757908381 15538033.333333 
4817.1705487465     14811700 
4865.342254234 14191466.666667 
4913.9956767763     14837650 
4963.1356335441 14716833.333333 
5012.7669898795     14595250 
5062.8946597783     14470100 
5113.5236063761     14215800 
5164.6588424398 13788533.333333 
5216.3054308642     13884800 
5268.4684851729     13694700 
5321.1531700246     13492800 
5374.3647017249     13315650 
5428.1083487421 13188766.666667 
5482.3894322295     13065800 
5537.2133265518 12848366.666667 
5592.5854598173     12701800 
5648.5113144155     12562600 
5704.9964275597 12381133.333333 
5762.0463918353 12198933.333333 
5819.6668557536     12009500 
5877.8635243112 11775533.333333 
5936.6421595543 11641833.333333 
5996.0085811498     11454100 
6055.9686669613     11278300 
6116.5283536309     11049700 
6177.6936371672 10919266.666667 
6239.4705735389 10742133.333333 
6301.8652792743     10575900 
6364.883932067     10408100 
6428.5327713877     10191500 
6492.8180991016      9816790 
6557.7462800926 9211153.3333333 
6623.3237428935 9715726.6666667 
6689.5569803225      9547350 
6756.4525501257 9372073.3333333 
6824.0170756269    9198247.5 
6892.2572463832      9030180 
6961.179818847    8862642.5 
7030.7916170355 8700956.6666667 
7101.0995332059    8535302.5 
7172.1105285379      8375250 
7243.8316338233    8226522.5 
7316.2699501615      8077140 
7389.4326496631      7921395 
7463.3269761598    7762187.5 
7537.9602459214    7603462.5 
7613.3398483806 7460816.6666667 
7689.4732468644      7326405 
7766.367979333      7175165 
7844.0316591264      7030380 
7922.4719757176    6881262.5 
8001.6966954748      6743435 
8081.7136624296    6606772.5 
8162.5307990539      6461985 
8244.1561070444    6340992.5 
8326.5976681148    6204437.5 
8409.863644796      6066444 
8493.9622812439    5849902.5 
8578.9019040564    5804797.5 
8664.6909230969      5598828 
8751.3378323279      5576125 
8838.8512106512      5395365 
8927.2397227577      5308172 
9016.5121199853    5211217.5 
9106.6772411851      5144374 
9197.744013597    4895767.5 
9289.721453733      4928146 
9382.6186682703      4802970 
9476.444854953      4586902 
9571.2093035025      4589295 
9666.9213965375      4496312 
9763.5906105029      4393302 
9861.226516608      4289892 
9959.838781774 4165451.3333333 
10059.437169592      4030185 
10160.031541288      4009995 
10261.631856701      3919020 
10364.248175268      3831120 
10467.89065702      3742940 
10572.56956359 3631953.3333333 
10678.295259226      3534045 
10785.078211819      3448725 
10892.928993937      3271500 
11001.858283876      3313280 
11111.876866715      3242750 
11222.995635382 3155166.6666667 
11335.225591736      3071795 
11448.577847653      3010050 
11563.06362613 2928253.3333333 
11678.694262391      2851420 
11795.481205015      2789655 
11913.436017065      2719730 
12032.570377236      2652915 
12152.896081008      2604935 
12274.425041818      2539820 
12397.169292236      2477910 
12521.140985159 2416883.3333333 
12646.35239501      2356685 
12772.81591896 2222113.3333333 
12900.54407815 2236083.3333333 
13029.549518932      2184000 
13159.845014121 2133006.6666667 
13291.443464262      2084285 
13424.357898905      2036820 
13558.601477894 1980916.6666667 
13694.187492673 1926846.6666667 
13831.129367599      1884475 
13969.440661275 1842293.3333333 
14109.135067888 1792933.3333333 
14250.226418567      1745780 
14392.728682753      1696910 
14536.65596958      1655571 
14682.022529276      1612340 
14828.842754569 1568643.3333333 
14977.131182115 1526143.3333333 
15126.902493936 1490773.3333333 
15278.171518875 1451026.6666667 
15430.953234064 1412113.3333333 
15585.262766404 1372953.3333333 
15741.115394068 1330333.3333333 
15898.526548009 1297731.4285714 
16057.511813489      1243540 
16218.086931624      1224555 
16380.26780094      1159790 
16544.07047895      1158410 
16709.511183739      1078585 
16876.606295577      1075610 
17045.372358532      1044770 
17215.826082118       969437 
17387.984342939       955936 
17561.864186368       932771 
17737.482828232     905373.5 
17914.857656514       867805 
18094.006233079       802363 
18274.94629541       802267 
18457.695758364       779239 
18642.272715948     724686.5 
18828.695443107       724318 
19016.982397539       701444 
19207.152221514     672530.5 
19399.223743729       624739 
19593.215981166     626191.5 
19789.148140978       603938 
19987.039622388       582471 
20186.910018612       561498 
20388.779118798     541916.5 
20592.666909986     522710.5 
20798.593579086     504634.5 
21006.579514877       487319 
21216.645310025       470653 
21428.811763126     453397.5 
21643.099880757 424277.33333333 
21859.530879564       417663 
22078.12618836     404036.5 
22298.907450244       390877 
22521.896524746     378114.5 
22747.115489993       363093 
22974.586644893     348790.5 
23204.332511342       337803 
23436.375836456 324745.33333333 
23670.73959482       312189 
23907.446990769     302667.5 
24146.521460676 291191.66666667 
24387.986675283     280203.5 
24631.866542036       269727 
24878.185207456     259832.5 
25126.967059531       250388 
25378.236730126     241615.5 
25632.019097427       232559 
25888.339288402     224328.5 
26147.222681286 211106.66666667 
26408.694908098 207489.66666667 
26672.781857179       199047 
26939.509675751       193875 
27208.904772509       185898 
27480.993820234       176943 
27755.803758436     172554.5 
28033.361796021 166862.66666667 
28313.695413981 160293.33333333 
28596.832368121       152281 
28882.800691802 148166.66666667 
29171.62869872 142520.33333333 
29463.344985707 137150.66666667 
29757.978435564       132020 
30055.55821992 125986.33333333 
30356.113802119 121862.33333333 
30659.67494014       118003 
30966.271689541       113718 
31275.934406437       109671 
31588.693750501       105794 
31904.580688006     102198.2 
32223.626494886     97951.65 
32545.862759835      94558.7 
32871.321387434     90156.45 
33200.034601308        87290 
33532.034947321      84359.5 
33867.355296794     81552.55 
34206.028849762     78016.05 
34548.08913826      75468.9 
34893.570029642     73034.25 
35242.505729939      69927.5 
35594.930787238     66984.55 
35950.880095111     64202.65 
36310.388896062        62197 
36673.492785022     60267.85 
37040.227712872      57595.4 
37410.629990001      55092.6 
37784.736289901      53296.5 
38162.5836528      51206.8 
38544.209489328      49216.8 
38929.651584221      47286.9 
39318.948100064      45512.4 
39712.137581064      43756.8 
40109.258956875      41716.7 
40510.351546444      40571.7 
40915.455061908     39088.45 
41324.609612527     37571.35 
41737.855708653     36292.55 
42155.234265739      35002.4 
42576.786608396     33759.75 
43002.55447448      32571.3 
43432.580019225      31343.6 
43866.905819417      30072.4 
44305.574877612     28808.35 
44748.630626388      27837.1 
45196.116932652     26903.65 
45648.078101978 25790.966666667 
46104.558882998        24515 
46565.604471828      23803.9 
47031.260516546 22967.033333333 
47501.573121712      22050.4 
47976.588852929      21351.9 
48456.354741458 20517.933333333 
48940.918288873      19722.3 
49430.327471761 18966.333333333 
49924.630746479      18244.7 
50423.877053944      17559.6 
50928.115824483     16811.45 
51437.396982728 16280.233333333 
51951.770952555      15683.7 
52471.288662081 15115.666666667 
52996.001548702 14466.433333333 
53525.961564189     13951.15 
54061.221179831      13460.6 
54601.833391629      12898.8 
55147.851725545     12451.75 
55699.330242801      12026.1 
56256.323545229 11538.133333333 
56818.886780681 11072.033333333 
57387.075648488 10633.966666667 
57960.946404973      10215.4 
58540.555869022      9779.66 
59125.961427713       9432.3 
59717.22104199 9077.0266666667 
60314.39325241 8732.9833333333 
60917.537184934      8405.02 
61526.712556783      8092.68 
62141.979682351 7794.0133333333 
62763.399479174 7502.3233333333 
63391.033473966      7238.25 
64024.943808706 6924.8914285714 
64665.193246793      6689.93 
65311.845179261     6455.535 
65964.963631053     6157.665 
66624.613267364      5945.03 
67290.859400038      5736.41 
67963.767994038      5484.93 
68643.405673978      5300.81 
69329.839730718      5125.13 
70023.138128025      4901.56 
70723.369509305      4690.18 
71430.603204399      4538.68 
72144.909236443     4393.895 
72866.358328807     4209.295 
73595.021912095     4034.325 
74330.972131216      3839.86 
75074.281852528     3710.845 
75825.024671053      3597.75 
76583.274917764     3489.345 
77349.107666942      3350.75 
78122.598743611     3219.095 
78903.824731047      3093.77 
79692.862978358       2974.5 
80489.791608141     2860.895 
81294.689524223     2752.565 
82107.636419465     2649.575 
82928.712783659      2551.24 
83757.999911496     2457.385 
84595.579910611 2346.3233333333 
85441.535709717      2241.03 
86295.951066814      2160.63 
87158.910577482     2081.115 
88030.499683257     2011.895 
88910.80468009     1942.065 
89799.912726891      1859.19 
90697.91185416     1780.365 
91604.890972701     1720.425 
92520.939882428 1649.1166666667 
93446.149281253     1580.405 
94380.610774065     1529.515 
95324.416881806      1467.91 
96277.661050624     1409.185 
97240.43766113      1353.56 
98212.842037741      1300.47 
99194.970458119     1259.915 
100186.9201627      1230.49 
199060.83304441      80.3905 
399467.9878358      5.10046 
594753.39981818      1.00872 
793700.71765891     0.318595 
997811.18987739     0.130157 
1193529.3359837    0.0625949 
1399507.0114645    0.0336961 
