#  WAVELENGTH	        FLUX	
#  (ANGSTROM)	(ERG/CM2/S/A)	
############	############	
        90.9  4.51272E-10 
    92.72709   1.76401E-9 
95.53681355409    6.4375E-9 
97.457103506527   1.38453E-8 
99.415991287008   3.33594E-8 
101.41425271188   9.69925E-8 
103.45267919139   2.09606E-7 
105.53207804313   4.41987E-7 
107.6532728118   1.02487E-6 
109.81710359532   2.89267E-6 
113.14467165136   1.07453E-5 
117.73879903054   3.96688E-5 
120.10534889105  0.000123542 
123.7446610678  0.000362677 
126.23192875526  0.000714426 
127.49424804281    0.0010377 
130.05688242847   0.00186885 
131.35745125276   0.00313616 
132.67102576529   0.00467478 
135.33771338317   0.00940233 
139.43858143639     0.020847 
142.24129692326    0.0479452 
146.55135046134     0.116089 
150.99200293167     0.263997 
154.02694219059     0.626021 
158.69411256591      1.26839 
161.88386422848      2.31803 
165.13772989948      4.77393 
170.14156825316      10.0043 
171.84298393569       16.683 
175.2970279128      28.6541 
178.82049817385      48.2282 
180.60870315558      60.2976 
186.0813274699       113.89 
189.82156215205      223.316 
193.6369755513      327.319 
197.52907875988      579.337 
201.49941324296      876.632 
203.51440737539      1277.97 
209.68109743327      2377.19 
216.03464436659      4368.04 
218.19499081026      6307.69 
222.58071012555      8652.94 
224.8065172268      12439.7 
229.32512822306      1784590 
233.93456330034      7909420 
238.63664802268     19305500 
245.86757709442     75330900 
250.80951539401    222156000 
255.85078665343    171769000 
258.40929451997    760816000 
263.60332133982   2250620000 
266.23935455322   3730980000 
271.59076557974   4866890000 
277.04973996789   4565960000 
282.61843974125   7675590000 
288.29907038004   8568040000 
294.09388169468   5286150000 
300.00516871675    818403000 
306.03527260795   3288690000 
315.30844740325   8536830000 
324.86260866801  10345500000 
334.70627057326  10560200000 
344.8482052779  11556000000 
355.29745074603  14470500000 
362.43892950602  17164600000 
373.42119150899  17682500000 
384.7362270329  16545100000 
392.46942519626  18775300000 
404.36164124913  19915700000 
412.48931023824  20190500000 
420.78034537403  19676600000 
429.23803031605  19163900000 
437.8657147254  20564300000 
446.66681559138  20979400000 
455.64481858477  20456700000 
469.4513122327  20811400000 
478.88728360858  21696300000 
488.51291800911  21139900000 
498.3320276611  22692700000 
503.31534793771  37154200000 
508.34850141708  71141400000 
518.56630629557  68129000000 
528.98948905211  65504700000 
539.62217778206  59701900000 
545.01839955988  60376400000 
555.97326939103  68284600000 
567.14833210579  68538600000 
578.54801358112  65437200000 
584.33349371693  66658900000 
596.07859694064  63194500000 
608.05977673914  62782500000 
614.14037450653  67369400000 
626.48459603412  66001400000 
639.0769364144  66542200000 
645.46770577855  64962600000 
651.92238283633  62344800000 
658.44160666469  64097700000 
671.67628295866  65330500000 
678.39304578824  61614500000 
692.02874600859  63577600000 
698.94903346867  60308100000 
712.99790904139  63209700000 
720.12788813181  62757700000 
734.60245868325  62599700000 
741.94848327009  60912700000 
749.36796810279  60109600000 
764.43026426165  58697900000 
772.07456690427  58764100000 
779.79531257331  58264400000 
787.59326569905  57945700000 
803.4238903396  57207900000 
811.45812924299  56938400000 
819.57271053542  56728800000 
827.76843764078  53113600000 
844.40658323736  55214900000 
852.85064906973  54358700000 
861.37915556043  54377900000 
869.99294711603  53850500000 
878.69287658719  53169700000 
887.47980535306  52519400000 
896.3546034066  51471100000 
914.37133093507  44389100000 
923.51504424442  82243300000 
932.75019468686 109620000000 
942.07769663373 137969000000 
951.49847360007 147635000000 
961.01345833607 166000000000 
970.62359291943 123467000000 
980.32982884862 156388000000 
990.13312713711 144288000000 
1000.0344584085 148723000000 
1010.0348029926 147225000000 
1020.1351510225 115691000000 
1030.3365025327 140324000000 
1040.639867558 140401000000 
1051.0462662336 137130000000 
1061.556728896 131398000000 
1072.1722961849 128870000000 
1082.8940191468 120777000000 
1093.7229593382 124350000000 
1104.6601889316 118819500000 
1115.7067908209 112029000000 
1126.8638587291 112804000000 
1138.1324973164 110178000000 
1149.5138222896 106499000000 
1161.0089605125 104001000000 
1172.6190501176  93512500000 
1184.3452406188  97158350000 
1196.188693025  93451900000 
1208.1505799552  74382700000 
1220.2320857548  89458700000 
1232.4344066123  88364100000 
1244.7587506785  85655050000 
1257.2063381852  83777600000 
1269.7784015671  82091000000 
1282.4761855828  79311000000 
1295.3009474386  76614700000 
1308.253956913  75369000000 
1321.3364964821  73531900000 
1334.5498614469  71402150000 
1347.8953600614  68934900000 
1361.374313662  67233000000 
1374.9880567986  65014050000 
1388.7379373666  62204200000 
1402.6253167403  60596450000 
1416.6515699077  58638800000 
1430.8180856068 57753770588.235 
1445.1262664628 55914361538.462 
1459.5775291275  54555300000 
1474.1733044187  53141250000 
1488.9150374629  51511200000 
1503.8041878376 50255663636.364 
1518.8422297159  48560100000 
1534.0306520131  45441500000 
1549.3709585332  43671100000 
1564.8646681186  43692200000 
1580.5133147997  42542950000 
1596.3184479477  40597600000 
1612.2816324272  39380300000 
1628.4044487515  37975600000 
1644.688493239  36820650000 
1661.1353781714 36513790909.091 
1677.7467319531  35869600000 
1694.5241992726  34884600000 
1711.4694412654  33231650000 
1728.584135678  32633300000 
1745.8699770348  31611900000 
1763.3286768051  30978000000 
1780.9619635732  29912100000 
1798.7715832089  28899050000 
1816.759299041  28125100000 
1834.9268920314  27476500000 
1853.2761609517  26498800000 
1871.8089225613  25606950000 
1890.5270117869  24852050000 
1909.4322819047  23946050000 
1928.5266047238  23275150000 
1947.811870771 22443263636.364 
1967.2899894787 21814111764.706 
1986.9628893735 21120704761.905 
2006.8325182673  20455650000 
2026.9008434499  19807150000 
2047.1698518844  14988050000 
2067.6415504033  15399530000 
2088.3179659073  17756800000 
2109.2011455664  17553350000 
2130.293157022  17021400000 
2151.5960885923  16565300000 
2173.1120494782  16143200000 
2194.843169973  15620800000 
2216.7916016727  15200250000 
2238.9595176894  14541050000 
2261.3491128663  14328550000 
2283.962603995 13632566666.667 
2306.8022300349  13314750000 
2329.8702523353  12942950000 
2353.1689548586 12487066666.667 
2376.7006444072  11864300000 
2400.4676508513  11714850000 
2424.4723273598 11317066666.667 
2448.7170506334  10928450000 
2473.2042211397  10451000000 
2497.9362633511 9971880869.5652 
2522.9156259846 9856411111.1111 
2548.1447822445   9548105000 
2573.6262300669 9234896666.6667 
2599.3624923676   8886820000 
2625.3561172913   8601435000 
2651.6096784642   8321150000 
2678.1257752488   8059215000 
2704.9070330013 7808433333.3333 
2731.9561033313 7459676666.6667 
2759.2756643647 7240626666.6667 
2786.8684210083   7020810000 
2814.7371052184 6804263333.3333 
2842.8844762706 6567703333.3333 
2871.3133210333 6333586666.6667 
2900.0264542436   6145600000 
2929.026718786   5924950000 
2958.3169859739   5723400000 
2987.9001558336   5524065000 
3017.779157392   5332380000 
3047.9569489659   5154420000 
3078.4365184556   4982100000 
3109.2208836401   4816825000 
3140.3130924765   4606795000 
3171.7162234013   4441790000 
3203.4333856353   4284275000 
3235.4677194916   4173020000 
3267.8223966866   4037185000 
3300.5006206534   3870770000 
3333.50562686   3745640000 
3366.8406831286   3633155000 
3400.5090899598   3483435000 
3434.5141808594   3371200000 
3468.859322668   3274590000 
3503.5479158947   3145095000 
3538.5833950537   3021895000 
3573.9692290042   2928050000 
3609.7089212942   2825552000 
3645.8060105072   2526820000 
3682.2640706123   2451485000 
3719.0867113184   2410380000 
3756.2775784316   2402235000 
3793.8403542159   2350340000 
3831.778757758   2378350000 
3870.0965453356   2136860000 
3908.797510789   2272050000 
3947.8854858969   2098545000 
3987.3643407558   2119780000 
4027.2379841634   2030450000 
4067.510364005   1954925000 
4108.1854676451   1833140000 
4149.2673223215 1826503333.3333 
4190.7599955447   1742355000 
4232.6675955002   1692535000 
4274.9942714552   1634190000 
4317.7442141697   1500105000 
4360.9216563114   1520510000 
4404.5308728746   1476900000 
4448.5761816033   1410820000 
4493.0619434193   1359385000 
4537.9925628535   1307475000 
4583.3724884821   1274700000 
4629.2062133669 1222333333.3333 
4675.4982755006   1157605000 
4722.2532582556   1140695000 
4769.4757908381 1097146666.6667 
4817.1705487465   1040995000 
4865.342254234    989789000 
4913.9956767763    973937500 
4963.1356335441 940798666.66667 
5012.7669898795    907050500 
5062.8946597783    874938000 
5113.5236063761    843514000 
5164.6588424398    813571000 
5216.3054308642    784842000 
5268.4684851729 757463666.66667 
5321.1531700246    726140000 
5374.3647017249    696229000 
5428.1083487421    677408000 
5482.3894322295    650114000 
5537.2133265518    624137000 
5592.5854598173    603545000 
5648.5113144155    582103000 
5704.9964275597 536336666.66667 
5762.0463918353 516535333.33333 
5819.6668557536 498059333.33333 
5877.8635243112    486576000 
5936.6421595543 475397666.66667 
5996.0085811498 462474666.66667 
6055.9686669613    446433000 
6116.5283536309 430011333.33333 
6177.6936371672    414464000 
6239.4705735389 399870333.33333 
6301.8652792743 385346333.33333 
6364.883932067 371671333.33333 
6428.5327713877    357108750 
6492.8180991016 340214333.33333 
6557.7462800926 322722333.33333 
6623.3237428935    319353000 
6689.5569803225    306534750 
6756.4525501257    295529000 
6824.0170756269    283663750 
6892.2572463832 273421333.33333 
6961.179818847    263162250 
7030.7916170355    252776000 
7101.0995332059    243659750 
7172.1105285379 234846666.66667 
7243.8316338233    226402500 
7316.2699501615    218450000 
7389.4326496631    210685000 
7463.3269761598    202219250 
7537.9602459214    193684500 
7613.3398483806 187461666.66667 
7689.4732468644    181036750 
7766.367979333    174027250 
7844.0316591264    167399250 
7922.4719757176    161039250 
8001.6966954748    154977250 
8081.7136624296    149185500 
8162.5307990539    141614250 
8244.1561070444    135012250 
8326.5976681148    130224750 
8409.863644796    125202400 
8493.9622812439    120637750 
8578.9019040564    116714500 
8664.6909230969    112319200 
8751.3378323279    109632500 
8838.8512106512    104602000 
8927.2397227577    101520400 
9016.5121199853     97964525 
9106.6772411851     95321300 
9197.744013597     89204525 
9289.721453733     88166640 
9382.6186682703     84903140 
9476.444854953     79507420 
9571.2093035025     78486550 
9666.9213965375     75800320 
9763.5906105029     72842060 
9861.226516608     70070720 
9959.838781774     66945640 
10059.437169592     63729400 
10160.031541288     62647900 
10261.631856701     60272650 
10364.248175268     58037700 
10467.89065702     55982050 
10572.56956359     53459500 
10678.295259226     51087200 
10785.078211819     49138050 
10892.928993937     46279550 
11001.858283876     45859100 
11111.876866715     44323600 
11222.995635382     42446300 
11335.225591736     40661600 
11448.577847653     39300850 
11563.06362613     37558400 
11678.694262391     36141200 
11795.481205015     34966450 
11913.436017065     33520300 
12032.570377236     32230550 
12152.896081008     31212000 
12274.425041818 29996466.666667 
12397.169292236     28836000 
12521.140985159     27727500 
12646.35239501     26681750 
12772.81591896 25212066.666667 
12900.54407815 24520933.333333 
13029.549518932     23635950 
13159.845014121     22776100 
13291.443464262     21951500 
13424.357898905 21164833.333333 
13558.601477894 20269566.666667 
13694.187492673     19419000 
13831.129367599     18743050 
13969.440661275 18098166.666667 
14109.135067888 17359433.333333 
14250.226418567 16657933.333333 
14392.728682753 15991333.333333 
14536.65596958 15358116.666667 
14682.022529276 14730366.666667 
14828.842754569 14185266.666667 
14977.131182115 13637366.666667 
15126.902493936 13120666.666667 
15278.171518875     12623600 
15430.953234064     12149100 
15585.262766404 11694633.333333 
15741.115394068 11260833.333333 
15898.526548009 10816914.285714 
16057.511813489     10367600 
16218.086931624     10046215 
16380.26780094      9615570 
16544.07047895      9371545 
16709.511183739      8858175 
16876.606295577      8631950 
17045.372358532      8328340 
17215.826082118      7889130 
17387.984342939      7603875 
17561.864186368      7360890 
17737.482828232      7120090 
17914.857656514      6813205 
18094.006233079      6443395 
18274.94629541      6248140 
18457.695758364      6050620 
18642.272715948      5762280 
18828.695443107      5620540 
19016.982397539      5388680 
19207.152221514      5172920 
19399.223743729      4903825 
19593.215981166      4773475 
19789.148140978      4586960 
19987.039622388      4409410 
20186.910018612      4240445 
20388.779118798      4077955 
20592.666909986      3925980 
20798.593579086      3779650 
21006.579514877      3637700 
21216.645310025      3506985 
21428.811763126      3378360 
21643.099880757 3198066.6666667 
21859.530879564      3086300 
22078.12618836      2977815 
22298.907450244      2874080 
22521.896524746      2774865 
22747.115489993 2659206.6666667 
22974.586644893      2547980 
23204.332511342      2462645 
23436.375836456 2360986.6666667 
23670.73959482      2264150 
23907.446990769      2190400 
24146.521460676      2102480 
24387.986675283      2018680 
24631.866542036      1938770 
24878.185207456      1863450 
25126.967059531 1791023.3333333 
25378.236730126      1722870 
25632.019097427 1656276.6666667 
25888.339288402      1594045 
26147.222681286 1517116.6666667 
26408.694908098 1467646.6666667 
26672.781857179      1408980 
26939.509675751 1363666.6666667 
27208.904772509 1305153.3333333 
27480.993820234      1244380 
27755.803758436      1206160 
28033.361796021      1164300 
28313.695413981 1116273.3333333 
28596.832368121 1064176.6666667 
28882.800691802 1027596.6666667 
29171.62869872       986564 
29463.344985707       947515 
29757.978435564 910384.66666667 
30055.55821992 870801.33333333 
30356.113802119 839031.33333333 
30659.67494014 809426.66666667 
30966.271689541       778898 
31275.934406437 749811.66666667 
31588.693750501       722042 
31904.580688006     696411.8 
32223.626494886     666201.5 
32545.862759835       642170 
32871.321387434     614291.5 
33200.034601308       590717 
33532.034947321       570058 
33867.355296794       550365 
34206.028849762       525352 
34548.08913826       507483 
34893.570029642     490439.5 
35242.505729939     468758.5 
35594.930787238     448273.5 
35950.880095111       428877 
36310.388896062       415006 
36673.492785022       401722 
37040.227712872       383334 
37410.629990001       366649 
37784.736289901       353553 
38162.5836528     339110.5 
38544.209489328       325396 
38929.651584221       312243 
39318.948100064       300010 
39712.137581064       288071 
40109.258956875       274462 
40510.351546444       266348 
40915.455061908       256174 
41324.609612527       245951 
41737.855708653     237302.5 
42155.234265739     228487.5 
42576.786608396       220051 
43002.55447448       212098 
43432.580019225     203807.5 
43866.905819417 195254.66666667 
44305.574877612     186804.5 
44748.630626388       180299 
45196.116932652       174045 
45648.078101978 166612.33333333 
46104.558882998     157915.5 
46565.604471828       153119 
47031.260516546       147793 
47501.573121712       141708 
47976.588852929     137071.5 
48456.354741458 131548.66666667 
48940.918288873       126283 
49430.327471761       121293 
49924.630746479       116532 
50423.877053944       112016 
50928.115824483       106859 
51437.396982728 103582.33333333 
51951.770952555      99694.1 
52471.288662081 95972.866666667 
52996.001548702 91728.366666667 
53525.961564189      88362.8 
54061.221179831 85160.766666667 
54601.833391629      81500.5 
55147.851725545      78594.8 
55699.330242801 75826.133333333 
56256.323545229      72657.6 
56818.886780681      69630.6 
57387.075648488 66800.266666667 
57960.946404973      64097.7 
58540.555869022      61097.9 
59125.961427713 58986.166666667 
59717.22104199      56763.4 
60314.39325241      54551.1 
60917.537184934      52445.8 
61526.712556783 50440.866666667 
62141.979682351      48523.4 
62763.399479174 46599.533333333 
63391.033473966      44972.5 
64024.943808706 42971.914285714 
64665.193246793      41475.1 
65311.845179261     39980.95 
65964.963631053     38085.95 
66624.613267364      36734.8 
67290.859400038      35340.6 
67963.767994038     33817.65 
68643.405673978      32652.2 
69329.839730718     31541.45 
70023.138128025      30129.2 
70723.369509305     28795.65 
71430.603204399      27840.9 
72144.909236443     26930.05 
72866.358328807     25769.45 
73595.021912095      24660.1 
74330.972131216     23185.45 
75074.281852528      22625.5 
75825.024671053      21935.1 
76583.274917764     21257.55 
77349.107666942     20391.95 
78122.598743611     19570.25 
78903.824731047      18789.5 
79692.862978358      18047.1 
80489.791608141      17340.6 
81294.689524223     16662.45 
82107.636419465     16028.65 
82928.712783659      15419.3 
83757.999911496     14838.35 
84595.579910611      14151.4 
85441.535709717      13501.1 
86295.951066814      12990.8 
87158.910577482     12450.75 
88030.499683257     12088.75 
88910.80468009     11659.35 
89799.912726891 11149.733333333 
90697.91185416        10666 
91604.890972701     10298.35 
92520.939882428 9861.4333333333 
93446.149281253     9417.845 
94380.610774065     9129.685 
95324.416881806      8753.53 
96277.661050624     8395.255 
97240.43766113      8056.05 
98212.842037741      7732.86 
99194.970458119      7486.09 
100186.9201627       7307.2 
199060.83304441      450.993 
399467.9878358      27.3765 
594753.39981818      5.31262 
793700.71765891      1.66009 
997811.18987739     0.673556 
1193529.3359837     0.322367 
1399507.0114645     0.172913 
