#  WAVELENGTH	        FLUX	
#  (ANGSTROM)	(ERG/CM2/S/A)	
############	############	
362.43892950602  4.04162E-24 
373.42119150899  2.45761E-23 
384.7362270329  1.64546E-22 
392.46942519626  9.94433E-22 
404.36164124913  5.47139E-21 
412.48931023824  2.35671E-20 
420.78034537403  8.16104E-20 
429.23803031605   2.6907E-19 
437.8657147254  1.28717E-18 
446.66681559138  4.97377E-18 
455.64481858477  1.59153E-17 
469.4513122327  5.48212E-17 
478.88728360858  1.78603E-16 
488.51291800911  5.52841E-16 
498.3320276611  1.62853E-15 
503.31534793771  4.03796E-15 
508.34850141708  8.36601E-15 
518.56630629557  1.83851E-14 
528.98948905211  4.77812E-14 
539.62217778206  1.17597E-13 
545.01839955988  2.82778E-13 
555.97326939103  6.53308E-13 
567.14833210579  1.46158E-12 
578.54801358112  3.13646E-12 
584.33349371693   6.6884E-12 
596.07859694064  1.37224E-11 
608.05977673914  2.74321E-11 
614.14037450653  5.35019E-11 
626.48459603412  1.01933E-10 
639.0769364144  1.90011E-10 
645.46770577855  3.46788E-10 
651.92238283633  5.52994E-10 
658.44160666469  8.23368E-10 
671.67628295866   1.43093E-9 
678.39304578824   2.44243E-9 
692.02874600859   4.09771E-9 
698.94903346867   6.76155E-9 
712.99790904139   1.15226E-8 
720.12788813181   1.84114E-8 
734.60245868325    2.7736E-8 
741.94848327009    4.3168E-8 
749.36796810279   6.63015E-8 
764.43026426165   1.00539E-7 
772.07456690427   1.50611E-7 
779.79531257331   2.22991E-7 
787.59326569905   3.26258E-7 
803.4238903396   4.72698E-7 
811.45812924299   6.77546E-7 
819.57271053542   9.61551E-7 
827.76843764078   1.35169E-6 
844.40658323736   1.88253E-6 
852.85064906973   2.59848E-6 
861.37915556043   3.55596E-6 
869.99294711603   4.82546E-6 
878.69287658719   6.49782E-6 
887.47980535306   8.68145E-6 
896.3546034066   1.15122E-5 
914.37133093507    0.0200459 
923.51504424442     0.113813 
932.75019468686     0.166654 
942.07769663373     0.246901 
951.49847360007     0.341026 
961.01345833607     0.453667 
970.62359291943     0.491132 
980.32982884862     0.748393 
990.13312713711     0.945228 
1000.0344584085      1.22558 
1010.0348029926      1.44168 
1020.1351510225      1.45521 
1030.3365025327      2.30411 
1040.639867558      3.07608 
1051.0462662336       3.6298 
1061.556728896      4.61486 
1072.1722961849      5.74016 
1082.8940191468      7.22788 
1093.7229593382      8.54334 
1104.6601889316      18.5867 
1115.7067908209      28.4313 
1126.8638587291       38.687 
1138.1324973164      46.3188 
1149.5138222896      50.6826 
1161.0089605125      59.4425 
1172.6190501176       66.902 
1184.3452406188     62.29375 
1196.188693025      39.3406 
1208.1505799552      15.5395 
1220.2320857548      47.5486 
1232.4344066123      103.609 
1244.7587506785      189.164 
1257.2063381852      277.917 
1269.7784015671      350.979 
1282.4761855828      535.464 
1295.3009474386      731.925 
1308.253956913      856.912 
1321.3364964821      1019.99 
1334.5498614469     1270.415 
1347.8953600614      1533.86 
1361.374313662      1824.22 
1374.9880567986     2146.975 
1388.7379373666      2564.87 
1402.6253167403     3056.955 
1416.6515699077      3553.53 
1430.8180856068       4117.5 
1445.1262664628 4791.2676923077 
1459.5775291275      5258.39 
1474.1733044187     6201.885 
1488.9150374629      7242.09 
1503.8041878376 8384.2931818182 
1518.8422297159      9525.73 
1534.0306520131     10965.95 
1549.3709585332        12064 
1564.8646681186      12893.4 
1580.5133147997      15389.1 
1596.3184479477      17024.4 
1612.2816324272      20260.2 
1628.4044487515      25300.7 
1644.688493239     31753.55 
1661.1353781714 53756.136363636 
1677.7467319531       140344 
1694.5241992726     438251.5 
1711.4694412654      1524980 
1728.584135678      2782880 
1745.8699770348      3728490 
1763.3286768051      3283865 
1780.9619635732      4639605 
1798.7715832089      4538800 
1816.759299041      4191430 
1834.9268920314      4137035 
1853.2761609517      4746390 
1871.8089225613      5222145 
1890.5270117869      5528010 
1909.4322819047      6117730 
1928.5266047238      5800910 
1947.811870771 7109890.9090909 
1967.2899894787 7053407.0588235 
1986.9628893735 6836832.3809524 
2006.8325182673      6529240 
2026.9008434499      7679515 
2047.1698518844      7795670 
2067.6415504033    8749160.5 
2088.3179659073      8216940 
2109.2011455664      8503180 
2130.293157022      8291075 
2151.5960885923      8315940 
2173.1120494782      8422835 
2194.843169973      9124070 
2216.7916016727      9707185 
2238.9595176894      9237175 
2261.3491128663      8802025 
2283.962603995 9408046.6666667 
2306.8022300349      9699050 
2329.8702523353      8276895 
2353.1689548586      9199390 
2376.7006444072      7734585 
2400.4676508513      8287675 
2424.4723273598     10122380 
2448.7170506334     10497400 
2473.2042211397      9318230 
2497.9362633511 9815199.5652174 
2522.9156259846 8355301.8518519 
2548.1447822445      9435725 
2573.6262300669     10754200 
2599.3624923676 10219536.666667 
2625.3561172913     12508650 
2651.6096784642 13260933.333333 
2678.1257752488     13231350 
2704.9070330013     12215300 
2731.9561033313     11380800 
2759.2756643647 12615566.666667 
2786.8684210083      6898600 
2814.7371052184     14142500 
2842.8844762706 12238073.333333 
2871.3133210333     13901400 
2900.0264542436     15105500 
2929.026718786     14567450 
2958.3169859739     14739200 
2987.9001558336     14716300 
3017.779157392     14873600 
3047.9569489659     15220850 
3078.4365184556     15253300 
3109.2208836401     15313400 
3140.3130924765     15589600 
3171.7162234013     14931300 
3203.4333856353     14939600 
3235.4677194916     15357000 
3267.8223966866     16005300 
3300.5006206534     16048850 
3333.50562686     15797300 
3366.8406831286     15520450 
3400.5090899598     15672550 
3434.5141808594     15596200 
3468.859322668     15728000 
3503.5479158947     15770350 
3538.5833950537     15783800 
3573.9692290042     15326000 
3609.7089212942     15594100 
3645.8060105072 16086366.666667 
3682.2640706123     15585450 
3719.0867113184     15162750 
3756.2775784316     16850500 
3793.8403542159     17419400 
3831.778757758     19898450 
3870.0965453356     16188200 
3908.797510789     19051600 
3947.8854858969     17758250 
3987.3643407558     20831500 
4027.2379841634     20944150 
4067.510364005     19987900 
4108.1854676451     18663250 
4149.2673223215 20531533.333333 
4190.7599955447     20117200 
4232.6675955002     20026200 
4274.9942714552     19506800 
4317.7442141697     17262050 
4360.9216563114     19637400 
4404.5308728746     19555100 
4448.5761816033 19435033.333333 
4493.0619434193     19324450 
4537.9925628535     19159950 
4583.3724884821     19037650 
4629.2062133669 18857066.666667 
4675.4982755006     18575150 
4722.2532582556     18476450 
4769.4757908381 18217866.666667 
4817.1705487465     17174300 
4865.342254234     16451800 
4913.9956767763     17361650 
4963.1356335441     17223100 
5012.7669898795     17054450 
5062.8946597783 16879566.666667 
5113.5236063761     16584800 
5164.6588424398 16076566.666667 
5216.3054308642     16151450 
5268.4684851729     15920500 
5321.1531700246 15661533.333333 
5374.3647017249     15441550 
5428.1083487421     15271000 
5482.3894322295     15101300 
5537.2133265518     14834200 
5592.5854598173     14648450 
5648.5113144155     14470000 
5704.9964275597 14241933.333333 
5762.0463918353     14016100 
5819.6668557536 13782233.333333 
5877.8635243112 13501266.666667 
5936.6421595543     13331700 
5996.0085811498 13104966.666667 
6055.9686669613 12890366.666667 
6116.5283536309 12628133.333333 
6177.6936371672     12457600 
6239.4705735389 12245433.333333 
6301.8652792743 12043266.666667 
6364.883932067 11840366.666667 
6428.5327713877     11579550 
6492.8180991016     11053600 
6557.7462800926     10314140 
6623.3237428935 10996133.333333 
6689.5569803225     10804400 
6756.4525501257 10596133.333333 
6824.0170756269     10389500 
6892.2572463832 10189366.666667 
6961.179818847      9990950 
7030.7916170355 9799106.6666667 
7101.0995332059    9604847.5 
7172.1105285379      9416910 
7243.8316338233    9240227.5 
7316.2699501615 9064153.3333333 
7389.4326496631      8883850 
7463.3269761598    8694837.5 
7537.9602459214    8508342.5 
7613.3398483806 8342743.3333333 
7689.4732468644      8185640 
7766.367979333      8008665 
7844.0316591264      7839605 
7922.4719757176    7667317.5 
8001.6966954748      7506630 
8081.7136624296      7347875 
8162.5307990539    7182247.5 
8244.1561070444      7040680 
8326.5976681148      6885790 
8409.863644796      6726202 
8493.9622812439      6487885 
8578.9019040564      6424395 
8664.6909230969      6197166 
8751.3378323279      6155160 
8838.8512106512      5946315 
8927.2397227577      5845916 
9016.5121199853      5733680 
9106.6772411851      5665766 
9197.744013597      5360140 
9289.721453733      5420134 
9382.6186682703      5279932 
9476.444854953      5005852 
9571.2093035025    5033307.5 
9666.9213965375      4931388 
9763.5906105029      4814228 
9861.226516608      4697370 
9959.838781774      4541200 
10059.437169592      4385710 
10160.031541288      4381165 
10261.631856701      4278745 
10364.248175268      4179615 
10467.89065702      4080730 
10572.56956359      3956350 
10678.295259226      3846020 
10785.078211819      3747165 
10892.928993937      3521665 
11001.858283876      3595425 
11111.876866715      3518515 
11222.995635382      3420590 
11335.225591736      3327620 
11448.577847653      3257890 
11563.06362613 3167356.6666667 
11678.694262391      3081175 
11795.481205015      3013000 
11913.436017065 2934383.3333333 
12032.570377236      2859800 
12152.896081008      2805905 
12274.425041818      2733360 
12397.169292236      2664455 
12521.140985159      2596690 
12646.35239501      2527315 
12772.81591896 2362253.3333333 
12900.54407815 2394193.3333333 
13029.549518932      2337785 
13159.845014121      2281280 
13291.443464262      2227260 
13424.357898905 2174526.6666667 
13558.601477894      2112700 
13694.187492673      2052910 
13831.129367599      2005835 
13969.440661275 1959243.3333333 
14109.135067888 1904683.3333333 
14250.226418567 1852573.3333333 
14392.728682753      1799170 
14536.65596958 1753027.3333333 
14682.022529276      1705490 
14828.842754569 1657423.3333333 
14977.131182115      1611070 
15126.902493936 1572103.3333333 
15278.171518875      1529010 
15430.953234064 1486796.6666667 
15585.262766404 1444683.3333333 
15741.115394068      1399430 
15898.526548009 1361745.7142857 
16057.511813489      1308420 
16218.086931624      1282445 
16380.26780094      1219850 
16544.07047895      1211760 
16709.511183739      1130150 
16876.606295577      1124760 
17045.372358532      1092880 
17215.826082118    1013719.5 
17387.984342939     998601.5 
17561.864186368       976115 
17737.482828232     947341.5 
17914.857656514     906861.5 
18094.006233079       835995 
18274.94629541     838341.5 
18457.695758364       813790 
18642.272715948     752465.5 
18828.695443107     755794.5 
19016.982397539       733406 
19207.152221514     701728.5 
19399.223743729       649460 
19593.215981166       654249 
19789.148140978       631237 
19987.039622388       608688 
20186.910018612     586752.5 
20388.779118798     566197.5 
20592.666909986     546088.5 
20798.593579086       527155 
21006.579514877     509004.5 
21216.645310025     491529.5 
21428.811763126     472675.5 
21643.099880757 440821.66666667 
21859.530879564       436069 
22078.12618836     421797.5 
22298.907450244       408022 
22521.896524746       394692 
22747.115489993 378958.66666667 
22974.586644893       363987 
23204.332511342     352494.5 
23436.375836456 338830.33333333 
23670.73959482       325708 
23907.446990769       315743 
24146.521460676 303757.66666667 
24387.986675283       292276 
24631.866542036       281327 
24878.185207456     270972.5 
25126.967059531       261054 
25378.236730126       251824 
25632.019097427 242431.33333333 
25888.339288402     233635.5 
26147.222681286       218972 
26408.694908098       216032 
26672.781857179       207603 
26939.509675751 202020.33333333 
27208.904772509 193644.66666667 
27480.993820234       184431 
27755.803758436     179761.5 
28033.361796021 173815.33333333 
28313.695413981 166915.33333333 
28596.832368121 158551.66666667 
28882.800691802 154296.66666667 
29171.62869872 148408.33333333 
29463.344985707 142803.33333333 
29757.978435564 137450.66666667 
30055.55821992 131078.33333333 
30356.113802119 126728.33333333 
30659.67494014       122827 
30966.271689541       118364 
31275.934406437       114140 
31588.693750501       110097 
31904.580688006     106348.6 
32223.626494886       101923 
32545.862759835      98353.2 
32871.321387434     93603.45 
33200.034601308      90802.3 
33532.034947321      87759.7 
33867.355296794     84834.35 
34206.028849762      81147.2 
34548.08913826      78494.4 
34893.570029642        75956 
35242.505729939     72720.35 
35594.930787238     69655.15 
35950.880095111      66758.7 
36310.388896062      64668.5 
36673.492785022      62665.8 
37040.227712872      59790.2 
37410.629990001     57196.05 
37784.736289901     55407.15 
38162.5836528     53230.55 
38544.209489328     51155.05 
38929.651584221      49150.1 
39318.948100064     47297.35 
39712.137581064      45475.8 
40109.258956875     43254.55 
40510.351546444     42144.55 
40915.455061908      40614.5 
41324.609612527     39043.95 
41737.855708653     37706.55 
42155.234265739      36363.5 
42576.786608396     35069.85 
43002.55447448        33834 
43432.580019225      32559.4 
43866.905819417 31232.066666667 
44305.574877612      29921.1 
44748.630626388     28911.55 
45196.116932652     27940.05 
45648.078101978 26784.066666667 
46104.558882998      25401.6 
46565.604471828     24699.15 
47031.260516546      23847.2 
47501.573121712     22894.65 
47976.588852929     22169.15 
48456.354741458 21302.166666667 
48940.918288873     20474.05 
49430.327471761 19689.833333333 
49924.630746479     18939.85 
50423.877053944 18227.433333333 
50928.115824483      17436.6 
51437.396982728      16897.6 
51951.770952555     16278.15 
52471.288662081        15689 
52996.001548702 15014.633333333 
53525.961564189     14478.95 
54061.221179831      13969.6 
54601.833391629 13385.466666667 
55147.851725545      12922.5 
55699.330242801 12479.633333333 
56256.323545229      11972.4 
56818.886780681 11490.733333333 
57387.075648488      11033.7 
57960.946404973 10599.066666667 
58540.555869022 10137.223333333 
59125.961427713 9786.6733333333 
59717.22104199      9417.21 
60314.39325241      9060.07 
60917.537184934 8719.5733333333 
61526.712556783 8395.2566666667 
62141.979682351      8085.21 
62763.399479174 7782.5733333333 
63391.033473966 7508.3233333333 
64024.943808706 7183.0714285714 
64665.193246793      6939.24 
65311.845179261      6695.91 
65964.963631053     6386.795 
66624.613267364      6166.07 
67290.859400038     5949.095 
67963.767994038     5688.535 
68643.405673978      5497.53 
69329.839730718     5315.215 
70023.138128025     5083.235 
70723.369509305      4863.85 
71430.603204399      4706.68 
72144.909236443     4556.425 
72866.358328807      4364.95 
73595.021912095      4183.39 
74330.972131216     3974.065 
75074.281852528      3847.79 
75825.024671053       3730.5 
76583.274917764     3618.015 
77349.107666942     3474.265 
78122.598743611      3337.65 
78903.824731047      3207.66 
79692.862978358     3083.935 
80489.791608141     2966.095 
81294.689524223     2853.845 
82107.636419465     2746.895 
82928.712783659      2644.88 
83757.999911496      2547.57 
84595.579910611      2432.39 
85441.535709717       2323.2 
86295.951066814      2239.89 
87158.910577482     2156.625 
88030.499683257      2085.54 
88910.80468009      2013.16 
89799.912726891 1927.1866666667 
90697.91185416     1845.455 
91604.890972701      1783.32 
92520.939882428      1709.36 
93446.149281253      1638.03 
94380.610774065      1585.33 
95324.416881806      1521.44 
96277.661050624      1460.55 
97240.43766113 1402.8733333333 
98212.842037741     1347.825 
99194.970458119     1305.795 
100186.9201627      1275.29 
199060.83304441       83.247 
399467.9878358      5.27824 
594753.39981818      1.04367 
793700.71765891     0.329658 
997811.18987739       0.1347 
1193529.3359837     0.064795 
1399507.0114645    0.0348898 
