#  WAVELENGTH	        FLUX	
#  (ANGSTROM)	(ERG/CM2/S/A)	
############	############	
146.55135046134  6.95291E-23 
150.99200293167  8.47474E-22 
154.02694219059  7.65814E-21 
158.69411256591  4.54767E-20 
161.88386422848   2.0717E-19 
165.13772989948  1.26952E-18 
170.14156825316  8.10198E-18 
171.84298393569  2.90984E-17 
175.2970279128  1.12254E-16 
178.82049817385  4.11279E-16 
180.60870315558  7.17988E-16 
186.0813274699  3.49141E-15 
189.82156215205   1.8615E-14 
193.6369755513   4.8126E-14 
197.52907875988  1.98594E-13 
201.49941324296  5.55051E-13 
203.51440737539  1.41432E-12 
209.68109743327  6.59133E-12 
216.03464436659  2.98233E-11 
218.19499081026   7.4216E-11 
222.58071012555  1.62665E-10 
224.8065172268  4.00852E-10 
229.32512822306    1.4894E-9 
233.93456330034   3.88639E-9 
238.63664802268   1.34151E-8 
245.86757709442   4.78316E-8 
250.80951539401   1.43807E-7 
255.85078665343   3.11149E-7 
258.40929451997   5.46977E-7 
263.60332133982   1.07031E-6 
266.23935455322   2.21997E-6 
271.59076557974    4.8492E-6 
277.04973996789    1.0301E-5 
282.61843974125   2.28492E-5 
288.29907038004   5.25452E-5 
294.09388169468  0.000116567 
300.00516871675  0.000220955 
306.03527260795  0.000517019 
315.30844740325   0.00165968 
324.86260866801   0.00490137 
334.70627057326    0.0135432 
344.8482052779    0.0351675 
355.29745074603    0.0790948 
362.43892950602     0.170622 
373.42119150899     0.353356 
384.7362270329     0.760807 
392.46942519626      1.57054 
404.36164124913      3.12087 
412.48931023824      5.61658 
420.78034537403      9.25199 
429.23803031605      14.9282 
437.8657147254      28.0028 
446.66681559138       48.156 
455.64481858477      76.7223 
469.4513122327      125.842 
478.88728360858      201.741 
488.51291800911      316.746 
498.3320276611        487.4 
503.31534793771      3588.31 
508.34850141708      11550.9 
518.56630629557      15615.3 
528.98948905211      24858.3 
539.62217778206      28150.1 
545.01839955988      45810.4 
555.97326939103      59021.3 
567.14833210579      77324.3 
578.54801358112      77955.3 
584.33349371693       111277 
596.07859694064       154742 
608.05977673914       196029 
614.14037450653       239396 
626.48459603412       294626 
639.0769364144       347573 
645.46770577855       420519 
651.92238283633       498030 
658.44160666469       557917 
671.67628295866       646245 
678.39304578824       759995 
692.02874600859       917521 
698.94903346867      1061460 
712.99790904139      1251980 
720.12788813181      1431510 
734.60245868325      1625400 
741.94848327009      1885200 
749.36796810279      2153550 
764.43026426165      2442530 
772.07456690427      2777630 
779.79531257331      3137780 
787.59326569905      3504060 
803.4238903396      3917450 
811.45812924299      4331280 
819.57271053542      4855020 
827.76843764078      5284080 
844.40658323736      5878690 
852.85064906973      6455730 
861.37915556043      7136080 
869.99294711603      7880760 
878.69287658719      8668560 
887.47980535306      9444780 
896.3546034066     10080300 
914.37133093507     23909000 
923.51504424442    567720000 
932.75019468686   1588370000 
942.07769663373   2973890000 
951.49847360007   3510060000 
961.01345833607   4044230000 
970.62359291943   1490830000 
980.32982884862   4065430000 
990.13312713711   3900390000 
1000.0344584085   4232710000 
1010.0348029926   4147510000 
1020.1351510225   2277860000 
1030.3365025327   3375900000 
1040.639867558   4680720000 
1051.0462662336   4481060000 
1061.556728896   4051870000 
1072.1722961849   4492240000 
1082.8940191468   4128200000 
1093.7229593382   4566230000 
1104.6601889316   4297795000 
1115.7067908209   3999410000 
1126.8638587291   4429010000 
1138.1324973164   4214630000 
1149.5138222896   4360840000 
1161.0089605125   4435640000 
1172.6190501176   3732570000 
1184.3452406188   4196970000 
1196.188693025   2956450000 
1208.1505799552   1539250000 
1220.2320857548   3679860000 
1232.4344066123   4125140000 
1244.7587506785   4157565000 
1257.2063381852   4019620000 
1269.7784015671   4144060000 
1282.4761855828   3796485000 
1295.3009474386   3615050000 
1308.253956913   3993840000 
1321.3364964821   3857160000 
1334.5498614469   3731235000 
1347.8953600614   3841120000 
1361.374313662   3702950000 
1374.9880567986   3666120000 
1388.7379373666   3405250000 
1402.6253167403   3521830000 
1416.6515699077   3506790000 
1430.8180856068 3534001764.7059 
1445.1262664628 3471111538.4615 
1459.5775291275   3378450000 
1474.1733044187   3326255000 
1488.9150374629   3263270000 
1503.8041878376 3112092272.7273 
1518.8422297159   3085430000 
1534.0306520131   2949245000 
1549.3709585332   2865800000 
1564.8646681186   2943375000 
1580.5133147997   2929570000 
1596.3184479477   2841540000 
1612.2816324272   2803755000 
1628.4044487515   2820240000 
1644.688493239   2761285000 
1661.1353781714 2737115454.5455 
1677.7467319531   2718240000 
1694.5241992726   2615715000 
1711.4694412654   2503125000 
1728.584135678   2489060000 
1745.8699770348   2489090000 
1763.3286768051   2377145000 
1780.9619635732   2381480000 
1798.7715832089   2328980000 
1816.759299041   2299210000 
1834.9268920314   2206765000 
1853.2761609517   2109635000 
1871.8089225613   2101775000 
1890.5270117869   1988730000 
1909.4322819047   1938990000 
1928.5266047238   1973530000 
1947.811870771 1905529090.9091 
1967.2899894787 1936941176.4706 
1986.9628893735 1855788095.2381 
2006.8325182673   1881475000 
2026.9008434499   1804675000 
2047.1698518844   1760130000 
2067.6415504033   1774943500 
2088.3179659073   1702915000 
2109.2011455664   1710430000 
2130.293157022   1664985000 
2151.5960885923   1653355000 
2173.1120494782   1615785000 
2194.843169973 1583976666.6667 
2216.7916016727   1533745000 
2238.9595176894   1509655000 
2261.3491128663   1485630000 
2283.962603995   1447150000 
2306.8022300349   1407505000 
2329.8702523353   1363095000 
2353.1689548586 1342186666.6667 
2376.7006444072   1304355000 
2400.4676508513   1278775000 
2424.4723273598   1257230000 
2448.7170506334   1230215000 
2473.2042211397   1192400000 
2497.9362633511 1163850434.7826 
2522.9156259846 1130792592.5926 
2548.1447822445   1113705000 
2573.6262300669 1092086666.6667 
2599.3624923676 1066383333.3333 
2625.3561172913   1044170000 
2651.6096784642 1023933333.3333 
2678.1257752488   1001401000 
2704.9070330013    977945000 
2731.9561033313 946355666.66667 
2759.2756643647 925503666.66667 
2786.8684210083    895495000 
2814.7371052184    882393000 
2842.8844762706    863607000 
2871.3133210333 841457333.33333 
2900.0264542436    822852000 
2929.026718786    798134500 
2958.3169859739    780162000 
2987.9001558336    759104500 
3017.779157392    740871000 
3047.9569489659    721843500 
3078.4365184556    702594000 
3109.2208836401    685827500 
3140.3130924765    662899500 
3171.7162234013    641760000 
3203.4333856353    630193500 
3235.4677194916    614646000 
3267.8223966866    599751000 
3300.5006206534    580872000 
3333.50562686    565843000 
3366.8406831286    553225000 
3400.5090899598    534617000 
3434.5141808594    519241000 
3468.859322668    509145000 
3503.5479158947    496120500 
3538.5833950537    481745500 
3573.9692290042    469448000 
3609.7089212942    457758000 
3645.8060105072 441796333.33333 
3682.2640706123    433679500 
3719.0867113184    484887500 
3756.2775784316    510458000 
3793.8403542159    504834000 
3831.778757758    524501500 
3870.0965453356    463467000 
3908.797510789    503806000 
3947.8854858969    463344500 
3987.3643407558    474616000 
4027.2379841634    457027500 
4067.510364005    444669000 
4108.1854676451    412331500 
4149.2673223215    417869000 
4190.7599955447    404150000 
4232.6675955002    391501500 
4274.9942714552    380817000 
4317.7442141697    349269000 
4360.9216563114    357212000 
4404.5308728746    348600500 
4448.5761816033 334674333.33333 
4493.0619434193    325505500 
4537.9925628535    316359000 
4583.3724884821    307738000 
4629.2062133669 297117666.66667 
4675.4982755006    285861500 
4722.2532582556    278896500 
4769.4757908381 270320333.33333 
4817.1705487465    258767500 
4865.342254234 244758333.33333 
4913.9956767763    243031500 
4963.1356335441 235952666.66667 
5012.7669898795    228419500 
5062.8946597783    221875000 
5113.5236063761    214774000 
5164.6588424398 208115333.33333 
5216.3054308642    201681000 
5268.4684851729    195465000 
5321.1531700246 188292666.66667 
5374.3647017249    182587000 
5428.1083487421 177061333.33333 
5482.3894322295 170752666.66667 
5537.2133265518    164697000 
5592.5854598173    159840500 
5648.5113144155 155083333.33333 
5704.9964275597    149787000 
5762.0463918353 144649666.66667 
5819.6668557536 138757333.33333 
5877.8635243112 134944333.33333 
5936.6421595543 130434333.33333 
5996.0085811498    126104000 
6055.9686669613    121945000 
6116.5283536309    117940000 
6177.6936371672 114115666.66667 
6239.4705735389 110434333.33333 
6301.8652792743 106877333.33333 
6364.883932067 103498666.66667 
6428.5327713877     99721950 
6492.8180991016 95694466.666667 
6557.7462800926 90027266.666667 
6623.3237428935 90126433.333333 
6689.5569803225     86999175 
6756.4525501257     84061000 
6824.0170756269     81141750 
6892.2572463832 78334666.666667 
6961.179818847     75656225 
7030.7916170355 72751633.333333 
7101.0995332059     70623675 
7172.1105285379 68196966.666667 
7243.8316338233     65891375 
7316.2699501615     63835700 
7389.4326496631     61759400 
7463.3269761598     59484725 
7537.9602459214     57318450 
7613.3398483806 55496766.666667 
7689.4732468644     53746350 
7766.367979333     51819575 
7844.0316591264     50035425 
7922.4719757176     48192025 
8001.6966954748     46555450 
8081.7136624296     44938975 
8162.5307990539     43403275 
8244.1561070444     41857100 
8326.5976681148     40319550 
8409.863644796     38793440 
8493.9622812439     37533925 
8578.9019040564     36860825 
8664.6909230969     35422700 
8751.3378323279     35497600 
8838.8512106512     33433975 
8927.2397227577     32701040 
9016.5121199853     31806275 
9106.6772411851     31016220 
9197.744013597     28971225 
9289.721453733     28896400 
9382.6186682703     27796680 
9476.444854953     26061980 
9571.2093035025     25833000 
9666.9213965375     24997500 
9763.5906105029     24098240 
9861.226516608     23220140 
9959.838781774     22253340 
10059.437169592     21304000 
10160.031541288     20895150 
10261.631856701     20138850 
10364.248175268     19465050 
10467.89065702     18793650 
10572.56956359 17987533.333333 
10678.295259226     17238050 
10785.078211819     16578300 
10892.928993937     15667850 
11001.858283876     15546250 
11111.876866715     15068450 
11222.995635382 14459266.666667 
11335.225591736     13884450 
11448.577847653     13443600 
11563.06362613     12917400 
11678.694262391     12415100 
11795.481205015     12031650 
11913.436017065 11555033.333333 
12032.570377236     11135200 
12152.896081008     10800200 
12274.425041818 10399433.333333 
12397.169292236     10015745 
12521.140985159 9645923.3333333 
12646.35239501      9301465 
12772.81591896 8805333.3333333 
12900.54407815 8577033.3333333 
13029.549518932      8286125 
13159.845014121      7997890 
13291.443464262      7721425 
13424.357898905      7455550 
13558.601477894 7155036.6666667 
13694.187492673 6867816.6666667 
13831.129367599      6638975 
13969.440661275 6420386.6666667 
14109.135067888      6169340 
14250.226418567 5930533.3333333 
14392.728682753      5703000 
14536.65596958 5485606.3333333 
14682.022529276 5280573.3333333 
14828.842754569      5084130 
14977.131182115 4889916.6666667 
15126.902493936      4710340 
15278.171518875 4530703.3333333 
15430.953234064      4372650 
15585.262766404 4219706.6666667 
15741.115394068      4072440 
15898.526548009 3961365.7142857 
16057.511813489      3750520 
16218.086931624      3691930 
16380.26780094      3498160 
16544.07047895      3451900 
16709.511183739      3257635 
16876.606295577      3188740 
17045.372358532      3079395 
17215.826082118      2915250 
17387.984342939      2823375 
17561.864186368      2734030 
17737.482828232      2647440 
17914.857656514      2537125 
18094.006233079      2402255 
18274.94629541      2333315 
18457.695758364      2261350 
18642.272715948      2163010 
18828.695443107      2106330 
19016.982397539      2021130 
19207.152221514      1944320 
19399.223743729      1844430 
19593.215981166      1797770 
19789.148140978      1729615 
19987.039622388      1664680 
20186.910018612      1602740 
20388.779118798      1542175 
20592.666909986      1487275 
20798.593579086      1433465 
21006.579514877      1380230 
21216.645310025      1332920 
21428.811763126      1285740 
21643.099880757 1219123.3333333 
21859.530879564      1177245 
22078.12618836      1136980 
22298.907450244      1098480 
22521.896524746      1061570 
22747.115489993 1017643.3333333 
22974.586644893     975833.5 
23204.332511342     944127.5 
23436.375836456 906231.66666667 
23670.73959482       869956 
23907.446990769       842174 
24146.521460676       809070 
24387.986675283       777549 
24631.866542036 747774.33333333 
24878.185207456     718205.5 
25126.967059531 691668.33333333 
25378.236730126       669414 
25632.019097427       641248 
25888.339288402       620677 
26147.222681286       589035 
26408.694908098       572835 
26672.781857179       545909 
26939.509675751       533195 
27208.904772509       510884 
27480.993820234       485501 
27755.803758436       472897 
28033.361796021 456835.66666667 
28313.695413981 438386.66666667 
28596.832368121       417320 
28882.800691802       404306 
29171.62869872       388490 
29463.344985707 373440.33333333 
29757.978435564 359110.33333333 
30055.55821992 343385.33333333 
30356.113802119 331611.66666667 
30659.67494014 320056.33333333 
30966.271689541 308229.66666667 
31275.934406437 296945.33333333 
31588.693750501 286171.66666667 
31904.580688006       276214 
32223.626494886       264463 
32545.862759835       255110 
32871.321387434     244163.5 
33200.034601308     234729.5 
33532.034947321       226700 
33867.355296794     219031.5 
34206.028849762       209277 
34548.08913826       202296 
34893.570029642       195631 
35242.505729939       187138 
35594.930787238     179129.5 
35950.880095111     171608.5 
36310.388896062       165911 
36673.492785022     160915.5 
37040.227712872     154022.5 
37410.629990001       147183 
37784.736289901     141934.5 
38162.5836528     136327.5 
38544.209489328     131087.5 
38929.651584221     125376.5 
39318.948100064       121031 
39712.137581064     116134.5 
40109.258956875     110726.5 
40510.351546444     107669.5 
40915.455061908       103606 
41324.609612527     99150.85 
41737.855708653     96101.05 
42155.234265739      92581.9 
42576.786608396     89199.05 
43002.55447448      86047.5 
43432.580019225     82504.05 
43866.905819417      79321.2 
44305.574877612      75966.5 
44748.630626388      73391.4 
45196.116932652      70883.7 
45648.078101978      67898.1 
46104.558882998     64552.65 
46565.604471828      62364.5 
47031.260516546      60338.5 
47501.573121712      57890.4 
47976.588852929     56022.95 
48456.354741458      53798.5 
48940.918288873     51675.35 
49430.327471761 49660.133333333 
49924.630746479     47721.25 
50423.877053944 45894.233333333 
50928.115824483     43832.95 
51437.396982728 42486.066666667 
51951.770952555      40933.5 
52471.288662081 39383.433333333 
52996.001548702      37706.1 
53525.961564189      36257.2 
54061.221179831 35042.433333333 
54601.833391629 33548.066666667 
55147.851725545     32279.25 
55699.330242801      31250.5 
56256.323545229      29961.6 
56818.886780681      28651.1 
57387.075648488 27576.966666667 
57960.946404973 26479.766666667 
58540.555869022 25301.066666667 
59125.961427713      24332.5 
59717.22104199      23494.3 
60314.39325241 22590.366666667 
60917.537184934 21729.166666667 
61526.712556783 20908.766666667 
62141.979682351 20124.433333333 
62763.399479174 19281.133333333 
63391.033473966      18669.2 
64024.943808706 17848.628571429 
64665.193246793      17235.1 
65311.845179261     16621.15 
65964.963631053      15843.2 
66624.613267364      15288.2 
67290.859400038     14696.95 
67963.767994038      14087.1 
68643.405673978      13607.7 
69329.839730718     13147.75 
70023.138128025     12568.65 
70723.369509305     12013.85 
71430.603204399      11625.1 
72144.909236443      11240.9 
72866.358328807      10769.7 
73595.021912095      10311.1 
74330.972131216      9750.15 
75074.281852528     9475.465 
75825.024671053      9184.62 
76583.274917764      8904.12 
77349.107666942      8529.17 
78122.598743611     8205.425 
78903.824731047     7881.935 
79692.862978358     7573.775 
80489.791608141     7280.865 
81294.689524223     6981.415 
82107.636419465     6736.155 
82928.712783659     6482.875 
83757.999911496      6241.17 
84595.579910611 5955.4666666667 
85441.535709717       5684.8 
86295.951066814     5458.365 
87158.910577482     5256.365 
88030.499683257      5096.32 
88910.80468009      4917.26 
89799.912726891 4704.4433333333 
90697.91185416      4502.57 
91604.890972701     4348.985 
92520.939882428 4165.8466666667 
93446.149281253     3973.465 
94380.610774065      3859.74 
95324.416881806      3702.15 
96277.661050624      3553.05 
97240.43766113      3410.91 
98212.842037741      3272.85 
99194.970458119      3172.15 
100186.9201627      3097.16 
199060.83304441      195.966 
399467.9878358      12.1133 
594753.39981818      2.37016 
793700.71765891     0.744984 
997811.18987739      0.30366 
1193529.3359837     0.145894 
1399507.0114645    0.0785079 
