#  WAVELENGTH	        FLUX	
#  (ANGSTROM)	(ERG/CM2/S/A)	
############	############	
861.37915556043  1.92578E-25 
869.99294711603  4.25681E-25 
878.69287658719  9.20633E-25 
887.47980535306  1.96895E-24 
896.3546034066  4.09726E-24 
914.37133093507  1.22857E-20 
923.51504424442  5.76792E-20 
932.75019468686  1.14356E-19 
942.07769663373  2.01695E-19 
951.49847360007  4.32981E-19 
961.01345833607  9.56323E-19 
970.62359291943  1.62518E-18 
980.32982884862  3.75031E-18 
990.13312713711  7.74978E-18 
1000.0344584085  1.32777E-17 
1010.0348029926   2.3784E-17 
1020.1351510225  4.41408E-17 
1030.3365025327  1.02146E-16 
1040.639867558   1.8044E-16 
1051.0462662336  2.65807E-16 
1061.556728896  6.00856E-16 
1072.1722961849  9.79947E-16 
1082.8940191468  1.97619E-15 
1093.7229593382  2.99722E-15 
1104.6601889316    6.793E-15 
1115.7067908209  1.65891E-14 
1126.8638587291  3.16803E-14 
1138.1324973164  5.28129E-14 
1149.5138222896  9.32376E-14 
1161.0089605125   1.3806E-13 
1172.6190501176  2.56243E-13 
1184.3452406188 4.274355E-13 
1196.188693025  5.55096E-13 
1208.1505799552  3.69782E-13 
1220.2320857548  1.18721E-12 
1232.4344066123  2.73157E-12 
1244.7587506785  6.52663E-12 
1257.2063381852  1.65519E-11 
1269.7784015671  2.91558E-11 
1282.4761855828  5.96581E-11 
1295.3009474386  1.34198E-10 
1308.253956913  1.90968E-10 
1321.3364964821  2.84582E-10 
1334.5498614469  4.86334E-10 
1347.8953600614  8.49108E-10 
1361.374313662   1.10308E-9 
1374.9880567986   1.38882E-9 
1388.7379373666    2.1171E-9 
1402.6253167403   3.58105E-9 
1416.6515699077   4.32717E-9 
1430.8180856068      8.46E-9 
1445.1262664628 1.0050269230769E-8 
1459.5775291275    1.5669E-8 
1474.1733044187  1.963945E-8 
1488.9150374629   3.55554E-8 
1503.8041878376 4.6765995454545E-8 
1518.8422297159   7.16615E-8 
1534.0306520131   9.15548E-8 
1549.3709585332   1.23374E-7 
1564.8646681186  1.763465E-7 
1580.5133147997  2.682795E-7 
1596.3184479477   3.37548E-7 
1612.2816324272  4.383355E-7 
1628.4044487515   6.26437E-7 
1644.688493239  8.746355E-7 
1661.1353781714 1.4076254545455E-6 
1677.7467319531   2.20872E-6 
1694.5241992726  3.388915E-6 
1711.4694412654  5.093385E-6 
1728.584135678  8.407935E-6 
1745.8699770348    1.0381E-5 
1763.3286768051   1.34325E-5 
1780.9619635732   2.29377E-5 
1798.7715832089  3.344725E-5 
1816.759299041   4.72296E-5 
1834.9268920314  5.682745E-5 
1853.2761609517   7.59927E-5 
1871.8089225613 0.00010638515 
1890.5270117869  0.000157378 
1909.4322819047  0.000216142 
1928.5266047238  0.000233747 
1947.811870771 0.00046048045454545 
1967.2899894787 0.00064332452941176 
1986.9628893735 0.00077070771428571 
2006.8325182673  0.000993398 
2026.9008434499  0.001287285 
2047.1698518844  0.001609345 
2067.6415504033 0.0021916075 
2088.3179659073   0.01013842 
2109.2011455664    0.0136129 
2130.293157022    0.0178166 
2151.5960885923   0.02059345 
2173.1120494782    0.0208376 
2194.843169973    0.0446605 
2216.7916016727   0.06317105 
2238.9595176894   0.13335335 
2261.3491128663    0.1124405 
2283.962603995 0.15757723333333 
2306.8022300349    0.4004665 
2329.8702523353     0.455115 
2353.1689548586 0.25359533333333 
2376.7006444072    0.7723465 
2400.4676508513     1.421376 
2424.4723273598 2.4871066666667 
2448.7170506334      3.54954 
2473.2042211397 2.6759746666667 
2497.9362633511 3.0018330434783 
2522.9156259846 15.318273703704 
2548.1447822445    15.085785 
2573.6262300669     14.62052 
2599.3624923676 26.749666666667 
2625.3561172913     72.43075 
2651.6096784642 83.741366666667 
2678.1257752488      65.7316 
2704.9070330013     104.2093 
2731.9561033313 115.41006666667 
2759.2756643647 245.42366666667 
2786.8684210083      233.147 
2814.7371052184      205.977 
2842.8844762706      95.3239 
2871.3133210333      454.384 
2900.0264542436      921.172 
2929.026718786    1030.3085 
2958.3169859739      896.032 
2987.9001558336     1268.385 
3017.779157392      1737.06 
3047.9569489659     2232.225 
3078.4365184556      2087.11 
3109.2208836401      3657.44 
3140.3130924765      6668.61 
3171.7162234013      6904.79 
3203.4333856353     8415.175 
3235.4677194916      13672.8 
3267.8223966866      19655.9 
3300.5006206534      17892.9 
3333.50562686      16055.8 
3366.8406831286    11332.855 
3400.5090899598     18354.85 
3434.5141808594      18080.8 
3468.859322668     22126.85 
3503.5479158947      34138.4 
3538.5833950537      37771.2 
3573.9692290042      23504.2 
3609.7089212942      42797.3 
3645.8060105072 62421.766666667 
3682.2640706123      51820.8 
3719.0867113184     24788.15 
3756.2775784316      65473.3 
3793.8403542159     48473.15 
3831.778757758     48593.65 
3870.0965453356      50501.8 
3908.797510789      46727.3 
3947.8854858969     45505.35 
3987.3643407558       117904 
4027.2379841634       112859 
4067.510364005     125800.5 
4108.1854676451     91253.95 
4149.2673223215 94736.966666667 
4190.7599955447      83562.8 
4232.6675955002       109117 
4274.9942714552       117669 
4317.7442141697       171766 
4360.9216563114     173646.5 
4404.5308728746     184246.5 
4448.5761816033       216150 
4493.0619434193     237955.5 
4537.9925628535       252352 
4583.3724884821     262050.5 
4629.2062133669 271067.33333333 
4675.4982755006       276757 
4722.2532582556       271244 
4769.4757908381 247248.33333333 
4817.1705487465     291870.5 
4865.342254234 316454.33333333 
4913.9956767763     307591.5 
4963.1356335441       254856 
5012.7669898795       241597 
5062.8946597783       224845 
5113.5236063761       208132 
5164.6588424398 224345.33333333 
5216.3054308642     372270.5 
5268.4684851729       391601 
5321.1531700246       408674 
5374.3647017249       413856 
5428.1083487421 406912.66666667 
5482.3894322295       421888 
5537.2133265518       445117 
5592.5854598173     439471.5 
5648.5113144155 472076.33333333 
5704.9964275597       489734 
5762.0463918353 505037.33333333 
5819.6668557536 508073.33333333 
5877.8635243112 441562.33333333 
5936.6421595543 504215.66666667 
5996.0085811498 532636.33333333 
6055.9686669613       546400 
6116.5283536309       518741 
6177.6936371672 493162.66666667 
6239.4705735389 506267.66666667 
6301.8652792743       553488 
6364.883932067 565922.33333333 
6428.5327713877    564096.25 
6492.8180991016 587433.33333333 
6557.7462800926 591218.66666667 
6623.3237428935 583008.33333333 
6689.5569803225    543079.25 
6756.4525501257       557744 
6824.0170756269     590760.5 
6892.2572463832 619248.33333333 
6961.179818847    638976.75 
7030.7916170355       583776 
7101.0995332059     531048.5 
7172.1105285379 581182.66666667 
7243.8316338233    633674.25 
7316.2699501615       654541 
7389.4326496631    667170.75 
7463.3269761598    674035.25 
7537.9602459214    674289.25 
7613.3398483806 655450.33333333 
7689.4732468644       648425 
7766.367979333       660181 
7844.0316591264    668797.25 
7922.4719757176    674906.25 
8001.6966954748    678524.75 
8081.7136624296       683517 
8162.5307990539    675768.75 
8244.1561070444    677105.25 
8326.5976681148       662183 
8409.863644796     662015.8 
8493.9622812439    650389.25 
8578.9019040564    674880.75 
8664.6909230969     661595.6 
8751.3378323279    672170.75 
8838.8512106512     663420.5 
8927.2397227577     659521.2 
9016.5121199853     664012.5 
9106.6772411851     665048.2 
9197.744013597     659328.5 
9289.721453733     652037.8 
9382.6186682703     651456.4 
9476.444854953     647626.2 
9571.2093035025    638997.25 
9666.9213965375     628736.8 
9763.5906105029       629669 
9861.226516608     633277.6 
9959.838781774 630102.46666667 
10059.437169592       625364 
10160.031541288       621725 
10261.631856701     618122.5 
10364.248175268       614582 
10467.89065702     611032.5 
10572.56956359 604674.33333333 
10678.295259226       599162 
10785.078211819       593931 
10892.928993937     584043.5 
11001.858283876     574559.5 
11111.876866715       565707 
11222.995635382 559977.33333333 
11335.225591736       548202 
11448.577847653       549816 
11563.06362613 540789.33333333 
11678.694262391     536736.5 
11795.481205015     529376.5 
11913.436017065       527195 
12032.570377236     527306.5 
12152.896081008     525964.5 
12274.425041818       521725 
12397.169292236       518508 
12521.140985159       514357 
12646.35239501     510450.5 
12772.81591896 504702.66666667 
12900.54407815 501262.66666667 
13029.549518932     493735.5 
13159.845014121       485404 
13291.443464262       426975 
13424.357898905 402240.66666667 
13558.601477894 399965.33333333 
13694.187492673 406829.33333333 
13831.129367599       380381 
13969.440661275 371646.66666667 
14109.135067888 357136.66666667 
14250.226418567       355130 
14392.728682753       356858 
14536.65596958 346528.96666667 
14682.022529276       347669 
14828.842754569 354693.66666667 
14977.131182115 357703.33333333 
15126.902493936 366341.33333333 
15278.171518875 366388.66666667 
15430.953234064 375099.33333333 
15585.262766404 384888.66666667 
15741.115394068 393584.33333333 
15898.526548009 404668.57142857 
16057.511813489       415018 
16218.086931624     414385.5 
16380.26780094       417713 
16544.07047895       417891 
16709.511183739       407130 
16876.606295577       394533 
17045.372358532       369481 
17215.826082118       340398 
17387.984342939     308899.5 
17561.864186368       285835 
17737.482828232       261314 
17914.857656514       240867 
18094.006233079     226988.5 
18274.94629541       212234 
18457.695758364       192984 
18642.272715948       189369 
18828.695443107     195763.5 
19016.982397539     195272.5 
19207.152221514     189967.5 
19399.223743729     188082.5 
19593.215981166       181352 
19789.148140978     168758.5 
19987.039622388       161981 
20186.910018612       157688 
20388.779118798       155708 
20592.666909986     152018.5 
20798.593579086     151060.5 
21006.579514877       152307 
21216.645310025       152755 
21428.811763126       154096 
21643.099880757 155662.66666667 
21859.530879564     155547.5 
22078.12618836       155656 
22298.907450244       155089 
22521.896524746     152358.5 
22747.115489993 144689.33333333 
22974.586644893       136387 
23204.332511342     124320.5 
23436.375836456 117630.33333333 
23670.73959482       110191 
23907.446990769     101265.5 
24146.521460676 89533.033333333 
24387.986675283     79533.75 
24631.866542036 71403.966666667 
24878.185207456     66092.95 
25126.967059531 60122.966666667 
25378.236730126     58494.15 
25632.019097427      56047.3 
25888.339288402     56221.75 
26147.222681286        57463 
26408.694908098 56831.133333333 
26672.781857179      54997.8 
26939.509675751 51492.433333333 
27208.904772509      47499.7 
27480.993820234      44942.7 
27755.803758436      43329.3 
28033.361796021 40311.566666667 
28313.695413981 39526.033333333 
28596.832368121 38536.333333333 
28882.800691802      37579.9 
29171.62869872 35049.733333333 
29463.344985707 34774.333333333 
29757.978435564 33011.433333333 
30055.55821992      32945.4 
30356.113802119 32018.933333333 
30659.67494014      30924.7 
30966.271689541      30787.6 
31275.934406437 29930.033333333 
31588.693750501 29935.133333333 
31904.580688006     29398.74 
32223.626494886      29195.7 
32545.862759835      28917.2 
32871.321387434     28840.15 
33200.034601308      28436.5 
33532.034947321        28364 
33867.355296794      28027.6 
34206.028849762      27804.2 
34548.08913826      27970.5 
34893.570029642      27236.2 
35242.505729939     26827.25 
35594.930787238     26405.55 
35950.880095111     26021.65 
36310.388896062      25565.9 
36673.492785022      25264.9 
37040.227712872      24779.3 
37410.629990001      24334.5 
37784.736289901      23948.7 
38162.5836528     23140.35 
38544.209489328      22587.8 
38929.651584221      21829.4 
39318.948100064     21015.25 
39712.137581064     19858.35 
40109.258956875     18970.55 
40510.351546444     17706.65 
40915.455061908     17078.05 
41324.609612527     16359.75 
41737.855708653     15770.35 
42155.234265739     15142.35 
42576.786608396      14459.6 
43002.55447448      13649.6 
43432.580019225      12871.1 
43866.905819417 12079.633333333 
44305.574877612        11420 
44748.630626388      11005.6 
45196.116932652      10536.8 
45648.078101978 10083.383333333 
46104.558882998      9648.52 
46565.604471828      9344.16 
47031.260516546 9063.9766666667 
47501.573121712     8612.545 
47976.588852929     8370.355 
48456.354741458       7960.3 
48940.918288873      7761.25 
49430.327471761      7385.89 
49924.630746479      6991.07 
50423.877053944 6751.1033333333 
50928.115824483     6478.305 
51437.396982728 6202.4366666667 
51951.770952555     6026.355 
52471.288662081 5744.5433333333 
52996.001548702 5553.2566666667 
53525.961564189      5378.47 
54061.221179831 5090.4566666667 
54601.833391629 4986.1866666667 
55147.851725545     4722.645 
55699.330242801 4665.7233333333 
56256.323545229 4485.4133333333 
56818.886780681      4277.93 
57387.075648488 4219.4866666667 
57960.946404973      4058.96 
58540.555869022 3947.8366666667 
59125.961427713 3836.3866666667 
59717.22104199 3737.1033333333 
60314.39325241 3633.8366666667 
60917.537184934      3554.62 
61526.712556783 3458.8566666667 
62141.979682351 3343.6866666667 
62763.399479174 3246.3166666667 
63391.033473966      3093.16 
64024.943808706 2813.5771428571 
64665.193246793      2618.21 
65311.845179261      2432.78 
65964.963631053     2266.235 
66624.613267364      2182.92 
67290.859400038     2119.035 
67963.767994038     2039.775 
68643.405673978      1967.37 
69329.839730718       1936.9 
70023.138128025     1849.475 
70723.369509305      1773.17 
71430.603204399      1763.57 
72144.909236443      1680.35 
72866.358328807     1628.085 
73595.021912095      1569.98 
74330.972131216     1522.455 
75074.281852528      1457.21 
75825.024671053      1388.27 
76583.274917764     1366.885 
77349.107666942      1309.12 
78122.598743611      1259.84 
78903.824731047       1203.5 
79692.862978358      1161.22 
80489.791608141      1109.45 
81294.689524223     1084.865 
82107.636419465     1041.755 
82928.712783659      997.823 
83757.999911496      966.291 
84595.579910611       931.35 
85441.535709717     896.0495 
86295.951066814     876.1585 
87158.910577482     835.9865 
88030.499683257      818.114 
88910.80468009     797.6295 
89799.912726891 770.95833333333 
90697.91185416     747.2175 
91604.890972701     725.6685 
92520.939882428 696.92633333333 
93446.149281253     671.1995 
94380.610774065      653.146 
95324.416881806 632.57733333333 
96277.661050624     604.3335 
97240.43766113      588.864 
98212.842037741     557.9275 
99194.970458119      547.808 
100186.9201627      534.137 
199060.83304441      38.5866 
399467.9878358      2.56718 
594753.39981818     0.515838 
793700.71765891     0.164219 
997811.18987739    0.0674008 
1193529.3359837    0.0325113 
1399507.0114645    0.0175343 
