#  WAVELENGTH	        FLUX	
#  (ANGSTROM)	(ERG/CM2/S/A)	
############	############	
334.70627057326  5.40904E-24 
344.8482052779  4.90883E-23 
355.29745074603   3.1933E-22 
362.43892950602  1.88781E-21 
373.42119150899  1.01878E-20 
384.7362270329  6.01321E-20 
392.46942519626  3.22415E-19 
404.36164124913   1.5832E-18 
412.48931023824  6.18478E-18 
420.78034537403  1.97047E-17 
429.23803031605   5.9957E-17 
437.8657147254  2.58081E-16 
446.66681559138  9.10095E-16 
455.64481858477  2.69106E-15 
469.4513122327  8.52121E-15 
478.88728360858  2.56108E-14 
488.51291800911  7.33706E-14 
498.3320276611  2.00662E-13 
503.31534793771  4.76511E-13 
508.34850141708  9.47314E-13 
518.56630629557  1.97101E-12 
528.98948905211  4.79638E-12 
539.62217778206  1.10757E-11 
545.01839955988  2.50522E-11 
555.97326939103   5.4561E-11 
567.14833210579  1.15301E-10 
578.54801358112  2.34135E-10 
584.33349371693  4.73495E-10 
596.07859694064  9.22716E-10 
608.05977673914   1.75517E-9 
614.14037450653   3.26237E-9 
626.48459603412   5.93247E-9 
639.0769364144   1.05707E-8 
645.46770577855   1.84665E-8 
651.92238283633   2.84625E-8 
658.44160666469   4.11621E-8 
671.67628295866   6.86932E-8 
678.39304578824   1.12716E-7 
692.02874600859    1.8203E-7 
698.94903346867   2.89408E-7 
712.99790904139   4.74008E-7 
720.12788813181   7.31338E-7 
734.60245868325   1.06842E-6 
741.94848327009   1.60853E-6 
749.36796810279    2.3918E-6 
764.43026426165   3.51435E-6 
772.07456690427   5.10571E-6 
779.79531257331   7.33682E-6 
787.59326569905   1.04259E-5 
803.4238903396    1.4682E-5 
811.45812924299   2.04693E-5 
819.57271053542    2.8272E-5 
827.76843764078   3.87068E-5 
844.40658323736   5.25362E-5 
852.85064906973   7.07105E-5 
861.37915556043    9.4416E-5 
869.99294711603  0.000125076 
878.69287658719  0.000164516 
887.47980535306  0.000214819 
896.3546034066  0.000278491 
914.37133093507     0.348746 
923.51504424442      2.33829 
932.75019468686      3.71662 
942.07769663373      5.74109 
951.49847360007      8.01768 
961.01345833607      10.4108 
970.62359291943      9.97481 
980.32982884862      16.3789 
990.13312713711      19.5739 
1000.0344584085      24.9807 
1010.0348029926      27.8716 
1020.1351510225      24.8867 
1030.3365025327      41.3051 
1040.639867558      54.5901 
1051.0462662336      65.6132 
1061.556728896      78.0315 
1072.1722961849      95.0543 
1082.8940191468      114.591 
1093.7229593382       133.15 
1104.6601889316      349.218 
1115.7067908209      543.803 
1126.8638587291      700.396 
1138.1324973164      800.833 
1149.5138222896      823.143 
1161.0089605125      941.252 
1172.6190501176      964.456 
1184.3452406188      854.948 
1196.188693025      375.763 
1208.1505799552      101.546 
1220.2320857548      425.151 
1232.4344066123      1036.41 
1244.7587506785     1697.065 
1257.2063381852      3082.65 
1269.7784015671      3923.44 
1282.4761855828     5959.665 
1295.3009474386      7767.65 
1308.253956913      9488.49 
1321.3364964821      11398.1 
1334.5498614469        14593 
1347.8953600614      17790.4 
1361.374313662      21011.9 
1374.9880567986     24503.15 
1388.7379373666      29086.9 
1402.6253167403      35908.4 
1416.6515699077      42470.1 
1430.8180856068 48919.511764706 
1445.1262664628 56407.838461538 
1459.5775291275      59642.2 
1474.1733044187     69278.15 
1488.9150374629      80752.4 
1503.8041878376 91477.068181818 
1518.8422297159      98252.5 
1534.0306520131     113866.5 
1549.3709585332       115844 
1564.8646681186     114290.5 
1580.5133147997     132338.5 
1596.3184479477       142434 
1612.2816324272       192875 
1628.4044487515       439439 
1644.688493239      1384675 
1661.1353781714 4282284.0909091 
1677.7467319531      7271830 
1694.5241992726      7955995 
1711.4694412654     10278850 
1728.584135678     11835350 
1745.8699770348     13147500 
1763.3286768051     11876700 
1780.9619635732     14024100 
1798.7715832089     13983300 
1816.759299041     13219300 
1834.9268920314     13213200 
1853.2761609517     13796150 
1871.8089225613     14435750 
1890.5270117869     14736900 
1909.4322819047     15749900 
1928.5266047238     15589750 
1947.811870771 17042436.363636 
1967.2899894787 16859288.235294 
1986.9628893735 16267128.571429 
2006.8325182673     15655500 
2026.9008434499     17197900 
2047.1698518844     17114250 
2067.6415504033     18391255 
2088.3179659073     17549200 
2109.2011455664     17924450 
2130.293157022     16823700 
2151.5960885923     17117400 
2173.1120494782     17002600 
2194.843169973     17760100 
2216.7916016727     18147000 
2238.9595176894     17185150 
2261.3491128663     17082550 
2283.962603995 17592333.333333 
2306.8022300349     17722050 
2329.8702523353     16291350 
2353.1689548586 17134166.666667 
2376.7006444072     15597650 
2400.4676508513     16025800 
2424.4723273598 17411966.666667 
2448.7170506334     17478000 
2473.2042211397 16685566.666667 
2497.9362633511 17522465.217391 
2522.9156259846 15459374.074074 
2548.1447822445     16693700 
2573.6262300669 18170633.333333 
2599.3624923676 17646233.333333 
2625.3561172913     19467050 
2651.6096784642     19812200 
2678.1257752488     19612450 
2704.9070330013 18663333.333333 
2731.9561033313     18031900 
2759.2756643647     19054800 
2786.8684210083     14961650 
2814.7371052184 20141833.333333 
2842.8844762706     18949900 
2871.3133210333     19451900 
2900.0264542436     20694600 
2929.026718786     20023650 
2958.3169859739     20145800 
2987.9001558336     20224150 
3017.779157392     20315600 
3047.9569489659     20346800 
3078.4365184556     20447700 
3109.2208836401     20249200 
3140.3130924765     20515200 
3171.7162234013     19784400 
3203.4333856353     19813250 
3235.4677194916     20017300 
3267.8223966866     20382550 
3300.5006206534     20366800 
3333.50562686     19962900 
3366.8406831286     19874500 
3400.5090899598     20044050 
3434.5141808594     19900200 
3468.859322668     19810400 
3503.5479158947     19952900 
3538.5833950537     19850550 
3573.9692290042     19557800 
3609.7089212942     19621200 
3645.8060105072 19873166.666667 
3682.2640706123     19420700 
3719.0867113184     22657800 
3756.2775784316     28332300 
3793.8403542159     31374700 
3831.778757758     38874100 
3870.0965453356     26429700 
3908.797510789     40293600 
3947.8854858969     33071850 
3987.3643407558     41339000 
4027.2379841634     42833600 
4067.510364005     37744150 
4108.1854676451     33748600 
4149.2673223215 40978933.333333 
4190.7599955447     40103050 
4232.6675955002     39461050 
4274.9942714552     37839200 
4317.7442141697     28413050 
4360.9216563114     36872050 
4404.5308728746     37214900 
4448.5761816033 36758433.333333 
4493.0619434193     36125150 
4537.9925628535     35503800 
4583.3724884821     35131650 
4629.2062133669 34506533.333333 
4675.4982755006     33594900 
4722.2532582556     33296850 
4769.4757908381 32411466.666667 
4817.1705487465     28285500 
4865.342254234     27186300 
4913.9956767763     30395350 
4963.1356335441 30051666.666667 
5012.7669898795     29569700 
5062.8946597783 29048533.333333 
5113.5236063761     28421750 
5164.6588424398     27585700 
5216.3054308642     27289800 
5268.4684851729     26756000 
5321.1531700246 26170166.666667 
5374.3647017249     25666150 
5428.1083487421 25221233.333333 
5482.3894322295 24709033.333333 
5537.2133265518 24139566.666667 
5592.5854598173     23699950 
5648.5113144155 23269266.666667 
5704.9964275597 22760333.333333 
5762.0463918353 22258933.333333 
5819.6668557536     21764300 
5877.8635243112 21224966.666667 
5936.6421595543 20817766.666667 
5996.0085811498 20357166.666667 
6055.9686669613 19919466.666667 
6116.5283536309 19448666.666667 
6177.6936371672 19062933.333333 
6239.4705735389 18644166.666667 
6301.8652792743 18246066.666667 
6364.883932067 17854333.333333 
6428.5327713877     17343475 
6492.8180991016 16039966.666667 
6557.7462800926     14710000 
6623.3237428935     16206100 
6689.5569803225     15891075 
6756.4525501257 15514366.666667 
6824.0170756269     15139775 
6892.2572463832 14778766.666667 
6961.179818847     14425275 
7030.7916170355 14085433.333333 
7101.0995332059     13745025 
7172.1105285379     13425400 
7243.8316338233     13114675 
7316.2699501615 12811666.666667 
7389.4326496631     12510475 
7463.3269761598     12183375 
7537.9602459214     11871350 
7613.3398483806 11598633.333333 
7689.4732468644     11336550 
7766.367979333     11033425 
7844.0316591264     10762100 
7922.4719757176     10487675 
8001.6966954748     10226275 
8081.7136624296      9970600 
8162.5307990539      9716475 
8244.1561070444      9494150 
8326.5976681148    9253627.5 
8409.863644796      8982224 
8493.9622812439      8636820 
8578.9019040564    8508562.5 
8664.6909230969      8102648 
8751.3378323279      8393140 
8838.8512106512    7792822.5 
8927.2397227577      7857538 
9016.5121199853    7704777.5 
9106.6772411851      7772330 
9197.744013597    6943177.5 
9289.721453733      7414042 
9382.6186682703      7201418 
9476.444854953      6505342 
9571.2093035025    6778157.5 
9666.9213965375      6673314 
9763.5906105029      6497852 
9861.226516608      6307646 
9959.838781774 5945500.6666667 
10059.437169592      5687170 
10160.031541288      5826705 
10261.631856701      5676855 
10364.248175268      5526405 
10467.89065702      5374110 
10572.56956359 5188926.6666667 
10678.295259226      5021940 
10785.078211819      4852305 
10892.928993937      4360990 
11001.858283876      4630715 
11111.876866715      4537780 
11222.995635382      4390950 
11335.225591736      4256300 
11448.577847653      4153970 
11563.06362613      4019850 
11678.694262391      3892610 
11795.481205015      3797640 
11913.436017065 3688686.6666667 
12032.570377236      3578895 
12152.896081008      3497555 
12274.425041818      3393440 
12397.169292236      3294705 
12521.140985159 3196326.6666667 
12646.35239501      3087680 
12772.81591896 2802036.6666667 
12900.54407815 2903376.6666667 
13029.549518932      2831185 
13159.845014121      2751250 
13291.443464262      2674660 
13424.357898905 2600243.3333333 
13558.601477894 2514006.6666667 
13694.187492673 2429896.6666667 
13831.129367599      2364915 
13969.440661275 2300693.3333333 
14109.135067888 2226013.3333333 
14250.226418567      2154420 
14392.728682753      2080620 
14536.65596958      2019313 
14682.022529276      1956380 
14828.842754569 1894966.6666667 
14977.131182115 1834896.6666667 
15126.902493936 1779003.3333333 
15278.171518875 1719503.3333333 
15430.953234064 1662393.3333333 
15585.262766404 1606036.6666667 
15741.115394068      1549610 
15898.526548009 1519195.7142857 
16057.511813489      1415030 
16218.086931624      1431990 
16380.26780094      1310650 
16544.07047895      1366890 
16709.511183739      1232955 
16876.606295577      1267010 
17045.372358532      1232670 
17215.826082118      1113980 
17387.984342939      1119070 
17561.864186368      1099820 
17737.482828232      1067235 
17914.857656514      1018420 
18094.006233079       917746 
18274.94629541     941174.5 
18457.695758364       913432 
18642.272715948     835590.5 
18828.695443107       845785 
19016.982397539       822845 
19207.152221514     784462.5 
19399.223743729       715668 
19593.215981166       732970 
19789.148140978     707387.5 
19987.039622388       681710 
20186.910018612       657007 
20388.779118798     633633.5 
20592.666909986     611065.5 
20798.593579086     589637.5 
21006.579514877     568997.5 
21216.645310025     549258.5 
21428.811763126     526565.5 
21643.099880757 487466.33333333 
21859.530879564       486983 
22078.12618836       470809 
22298.907450244     455381.5 
22521.896524746     440386.5 
22747.115489993 422795.33333333 
22974.586644893       406060 
23204.332511342       393244 
23436.375836456       377956 
23670.73959482       363296 
23907.446990769       352079 
24146.521460676 338619.66666667 
24387.986675283       325720 
24631.866542036       313515 
24878.185207456     301424.5 
25126.967059531 290252.66666667 
25378.236730126     280773.5 
25632.019097427       269112 
25888.339288402     260102.5 
26147.222681286 240465.33333333 
26408.694908098 241156.66666667 
26672.781857179       227154 
26939.509675751 226157.33333333 
27208.904772509 216537.66666667 
27480.993820234 202448.33333333 
27755.803758436     201356.5 
28033.361796021 194722.33333333 
28313.695413981 186758.33333333 
28596.832368121 173921.33333333 
28882.800691802 172641.33333333 
29171.62869872 166155.33333333 
29463.344985707       159854 
29757.978435564       153838 
30055.55821992 144956.33333333 
30356.113802119       140650 
30659.67494014 137419.66666667 
30966.271689541       132422 
31275.934406437 127679.66666667 
31588.693750501 123144.33333333 
31904.580688006     118940.2 
32223.626494886       113976 
32545.862759835       109856 
32871.321387434     103202.5 
33200.034601308       101285 
33532.034947321        97917 
33867.355296794      94678.5 
34206.028849762     90561.45 
34548.08913826      87602.1 
34893.570029642     84772.05 
35242.505729939     81163.85 
35594.930787238     77743.35 
35950.880095111     74500.85 
36310.388896062        72128 
36673.492785022     69902.15 
37040.227712872     66442.85 
37410.629990001      63438.8 
37784.736289901     61793.35 
38162.5836528      59418.1 
38544.209489328     57180.35 
38929.651584221      54702.2 
39318.948100064     52954.15 
39712.137581064      50699.4 
40109.258956875     47825.45 
40510.351546444      47111.9 
40915.455061908      45456.3 
41324.609612527     43231.15 
41737.855708653     42140.05 
42155.234265739     40687.85 
42576.786608396     39238.65 
43002.55447448      37853.3 
43432.580019225     36053.05 
43866.905819417 34858.566666667 
44305.574877612      33489.2 
44748.630626388     32375.65 
45196.116932652      31286.8 
45648.078101978 29971.566666667 
46104.558882998     28145.45 
46565.604471828     27230.85 
47031.260516546 26676.733333333 
47501.573121712     25624.35 
47976.588852929     24810.75 
48456.354741458      23839.1 
48940.918288873      22910.5 
49430.327471761 22030.633333333 
49924.630746479      21189.1 
50423.877053944 20380.166666667 
50928.115824483     19247.45 
51437.396982728      18862.8 
51951.770952555     18206.95 
52471.288662081 17530.733333333 
52996.001548702 16789.933333333 
53525.961564189      16159.3 
54061.221179831      15619.2 
54601.833391629 14958.466666667 
55147.851725545      14410.7 
55699.330242801 13950.133333333 
56256.323545229 13382.366666667 
56818.886780681 12801.033333333 
57387.075648488 12330.933333333 
57960.946404973 11846.766666667 
58540.555869022 11244.366666667 
59125.961427713      10868.6 
59717.22104199      10527.1 
60314.39325241 10127.306666667 
60917.537184934 9745.9733333333 
61526.712556783 9382.7533333333 
62141.979682351 9028.8433333333 
62763.399479174      8639.36 
63391.033473966      8389.62 
64024.943808706 8025.4742857143 
64665.193246793      7752.72 
65311.845179261      7480.12 
65964.963631053      7134.16 
66624.613267364      6887.13 
67290.859400038     6603.485 
67963.767994038     6352.765 
68643.405673978      6139.03 
69329.839730718      5935.13 
70023.138128025     5675.595 
70723.369509305     5430.185 
71430.603204399       5254.4 
72144.909236443     5085.905 
72866.358328807      4872.21 
73595.021912095      4667.81 
74330.972131216     4377.345 
75074.281852528      4289.16 
75825.024671053      4162.98 
76583.274917764      4037.35 
77349.107666942     3871.625 
78122.598743611     3724.055 
78903.824731047      3578.79 
79692.862978358      3440.55 
80489.791608141       3308.9 
81294.689524223      3176.45 
82107.636419465     3064.045 
82928.712783659     2950.045 
83757.999911496     2841.365 
84595.579910611      2712.68 
85441.535709717     2590.705 
86295.951066814     2488.995 
87158.910577482     2389.875 
88030.499683257      2325.36 
88910.80468009     2244.535 
89799.912726891      2148.54 
90697.91185416       2057.3 
91604.890972701      1987.89 
92520.939882428      1905.33 
93446.149281253     1816.725 
94380.610774065      1766.91 
95324.416881806 1695.5966666667 
96277.661050624      1627.65 
97240.43766113      1563.26 
98212.842037741      1501.84 
99194.970458119      1454.93 
100186.9201627      1420.91 
199060.83304441      92.3798 
399467.9878358      5.83273 
594753.39981818       1.1507 
793700.71765891     0.362893 
997811.18987739     0.148104 
1193529.3359837    0.0711758 
1399507.0114645    0.0382958 
