#  WAVELENGTH	        FLUX	
#  (ANGSTROM)	(ERG/CM2/S/A)	
############	############	
539.62217778206  6.91498E-25 
545.01839955988  2.58506E-24 
555.97326939103  9.14448E-24 
567.14833210579  3.08609E-23 
578.54801358112  9.85502E-23 
584.33349371693  3.08181E-22 
596.07859694064  9.15998E-22 
608.05977673914  2.62081E-21 
614.14037450653  7.23168E-21 
626.48459603412  1.92788E-20 
639.0769364144  4.97623E-20 
645.46770577855  1.24504E-19 
651.92238283633   2.5377E-19 
658.44160666469  4.66108E-19 
671.67628295866  1.08515E-18 
678.39304578824   2.4601E-18 
692.02874600859  5.43728E-18 
698.94903346867  1.17281E-17 
712.99790904139  2.66012E-17 
720.12788813181  5.47139E-17 
734.60245868325  1.02847E-16 
741.94848327009  2.03412E-16 
749.36796810279  3.94512E-16 
764.43026426165  7.50854E-16 
772.07456690427  1.40355E-15 
779.79531257331  2.57831E-15 
787.59326569905  4.65662E-15 
803.4238903396  8.28018E-15 
811.45812924299  1.44969E-14 
819.57271053542  2.50069E-14 
827.76843764078   4.2531E-14 
844.40658323736  7.13389E-14 
852.85064906973  1.18065E-13 
861.37915556043  1.92865E-13 
869.99294711603  3.11137E-13 
878.69287658719  4.96055E-13 
887.47980535306  7.81892E-13 
896.3546034066  1.21778E-12 
914.37133093507    1.2197E-8 
923.51504424442   7.59779E-8 
932.75019468686   1.19872E-7 
942.07769663373   1.61015E-7 
951.49847360007   2.09534E-7 
961.01345833607   3.85272E-7 
970.62359291943   3.01906E-7 
980.32982884862    7.3787E-7 
990.13312713711   1.15189E-6 
1000.0344584085    1.1857E-6 
1010.0348029926   1.31692E-6 
1020.1351510225   1.41398E-6 
1030.3365025327   3.28087E-6 
1040.639867558   4.85529E-6 
1051.0462662336    5.6268E-6 
1061.556728896   1.15783E-5 
1072.1722961849   1.41593E-5 
1082.8940191468    2.5951E-5 
1093.7229593382   3.30095E-5 
1104.6601889316   4.68994E-5 
1115.7067908209   9.50528E-5 
1126.8638587291  0.000144106 
1138.1324973164  0.000201347 
1149.5138222896   0.00024522 
1161.0089605125  0.000267689 
1172.6190501176  0.000364719 
1184.3452406188  0.000352628 
1196.188693025  0.000268429 
1208.1505799552  0.000169028 
1220.2320857548  0.000419152 
1232.4344066123  0.000986938 
1244.7587506785   0.00235994 
1257.2063381852   0.00426209 
1269.7784015671   0.00584877 
1282.4761855828   0.00915479 
1295.3009474386    0.0147586 
1308.253956913    0.0172472 
1321.3364964821    0.0206441 
1334.5498614469   0.02646525 
1347.8953600614    0.0365543 
1361.374313662    0.0423937 
1374.9880567986     0.051926 
1388.7379373666    0.0641439 
1402.6253167403    0.0892442 
1416.6515699077     0.110584 
1430.8180856068 0.15163758823529 
1445.1262664628 0.17981876923077 
1459.5775291275     0.232562 
1474.1733044187    0.2684305 
1488.9150374629     0.393397 
1503.8041878376 0.46722845454545 
1518.8422297159     0.731599 
1534.0306520131     1.661285 
1549.3709585332      2.34683 
1564.8646681186     2.896015 
1580.5133147997     4.253065 
1596.3184479477      5.18395 
1612.2816324272      7.20536 
1628.4044487515      10.5912 
1644.688493239      14.5826 
1661.1353781714 21.277631818182 
1677.7467319531      35.8603 
1694.5241992726     47.15735 
1711.4694412654      61.4209 
1728.584135678     93.86655 
1745.8699770348      131.292 
1763.3286768051      134.999 
1780.9619635732     204.9715 
1798.7715832089      248.456 
1816.759299041       273.74 
1834.9268920314      291.547 
1853.2761609517     394.4055 
1871.8089225613     511.3095 
1890.5270117869     710.6565 
1909.4322819047     941.3455 
1928.5266047238      891.704 
1947.811870771 1539.5463636364 
1967.2899894787 1632.2476470588 
1986.9628893735 1894.4266666667 
2006.8325182673     1948.095 
2026.9008434499     3347.445 
2047.1698518844     3935.135 
2067.6415504033     5195.552 
2088.3179659073     8890.395 
2109.2011455664      16856.4 
2130.293157022     23371.65 
2151.5960885923      19072.9 
2173.1120494782        23002 
2194.843169973 27133.533333333 
2216.7916016727     56000.75 
2238.9595176894     49810.35 
2261.3491128663     21241.65 
2283.962603995 37812.233333333 
2306.8022300349      41279.9 
2329.8702523353     39521.95 
2353.1689548586      47986.7 
2376.7006444072      31287.5 
2400.4676508513     43499.15 
2424.4723273598      98501.4 
2448.7170506334      93963.9 
2473.2042211397 30997.633333333 
2497.9362633511 28527.27826087 
2522.9156259846 29309.955555556 
2548.1447822445     87789.25 
2573.6262300669       128131 
2599.3624923676 96150.066666667 
2625.3561172913       247896 
2651.6096784642 339849.33333333 
2678.1257752488     309377.5 
2704.9070330013 193504.96666667 
2731.9561033313       140970 
2759.2756643647     176361.6 
2786.8684210083      52353.2 
2814.7371052184     126017.9 
2842.8844762706 51919.233333333 
2871.3133210333       204262 
2900.0264542436       431356 
2929.026718786       394185 
2958.3169859739       334712 
2987.9001558336     324471.5 
3017.779157392       383288 
3047.9569489659       415812 
3078.4365184556       330027 
3109.2208836401       446995 
3140.3130924765       475444 
3171.7162234013       491345 
3203.4333856353       556031 
3235.4677194916       800542 
3267.8223966866     988886.5 
3300.5006206534     777784.5 
3333.50562686       721370 
3366.8406831286       462575 
3400.5090899598       692387 
3434.5141808594       719910 
3468.859322668       914934 
3503.5479158947      1106200 
3538.5833950537    1117183.5 
3573.9692290042       866169 
3609.7089212942      1119390 
3645.8060105072 1412836.6666667 
3682.2640706123      1269665 
3719.0867113184     750947.5 
3756.2775784316      1368335 
3793.8403542159     994584.5 
3831.778757758      1101445 
3870.0965453356      1089280 
3908.797510789     982789.5 
3947.8854858969      1133529 
3987.3643407558      1964445 
4027.2379841634      1910280 
4067.510364005      1981500 
4108.1854676451      2033450 
4149.2673223215 1940366.6666667 
4190.7599955447      1768115 
4232.6675955002      1695770 
4274.9942714552      1362770 
4317.7442141697      2033945 
4360.9216563114      1951285 
4404.5308728746      2294155 
4448.5761816033 2576496.6666667 
4493.0619434193      2730615 
4537.9925628535      2812460 
4583.3724884821      2826770 
4629.2062133669 2899553.3333333 
4675.4982755006      2917230 
4722.2532582556      2933755 
4769.4757908381      2939260 
4817.1705487465      2956320 
4865.342254234      2889330 
4913.9956767763      2873850 
4963.1356335441 2853453.3333333 
5012.7669898795      2808660 
5062.8946597783 2764993.3333333 
5113.5236063761      2630180 
5164.6588424398 2399833.3333333 
5216.3054308642      2999830 
5268.4684851729 2982713.3333333 
5321.1531700246      2997280 
5374.3647017249      2999710 
5428.1083487421      3017150 
5482.3894322295 3102253.3333333 
5537.2133265518 3089553.3333333 
5592.5854598173      3109250 
5648.5113144155 3144843.3333333 
5704.9964275597 3140326.6666667 
5762.0463918353 3147453.3333333 
5819.6668557536 3138673.3333333 
5877.8635243112 3002856.6666667 
5936.6421595543      3123300 
5996.0085811498 3107366.6666667 
6055.9686669613 3091153.3333333 
6116.5283536309 3013056.6666667 
6177.6936371672      3048530 
6239.4705735389 3028833.3333333 
6301.8652792743 3021876.6666667 
6364.883932067 3008303.3333333 
6428.5327713877    2959082.5 
6492.8180991016 2978806.6666667 
6557.7462800926 2904566.6666667 
6623.3237428935      2949380 
6689.5569803225    2933657.5 
6756.4525501257 2912916.6666667 
6824.0170756269      2890025 
6892.2572463832 2866286.6666667 
6961.179818847      2842265 
7030.7916170355 2818916.6666667 
7101.0995332059      2785310 
7172.1105285379 2754056.6666667 
7243.8316338233    2742547.5 
7316.2699501615 2715193.3333333 
7389.4326496631      2684585 
7463.3269761598      2659720 
7537.9602459214      2636050 
7613.3398483806 2601473.3333333 
7689.4732468644      2578805 
7766.367979333      2557435 
7844.0316591264      2528255 
7922.4719757176      2491835 
8001.6966954748      2464365 
8081.7136624296      2438405 
8162.5307990539    2394302.5 
8244.1561070444    2381487.5 
8326.5976681148      2331255 
8409.863644796      2306232 
8493.9622812439      2195425 
8578.9019040564      2252640 
8664.6909230969      2172916 
8751.3378323279      2177500 
8838.8512106512    2165912.5 
8927.2397227577      2131444 
9016.5121199853    2104852.5 
9106.6772411851      2075410 
9197.744013597      2041120 
9289.721453733      2015360 
9382.6186682703      1981304 
9476.444854953      1952328 
9571.2093035025      1922315 
9666.9213965375      1893896 
9763.5906105029      1866830 
9861.226516608      1838556 
9959.838781774      1812784 
10059.437169592      1782740 
10160.031541288      1754280 
10261.631856701      1725435 
10364.248175268      1698505 
10467.89065702      1672495 
10572.56956359 1636196.6666667 
10678.295259226      1604115 
10785.078211819      1572085 
10892.928993937      1551520 
11001.858283876      1528750 
11111.876866715      1505390 
11222.995635382      1476210 
11335.225591736      1443365 
11448.577847653      1429495 
11563.06362613 1395903.3333333 
11678.694262391      1374510 
11795.481205015      1342535 
11913.436017065      1321510 
12032.570377236      1300950 
12152.896081008      1289045 
12274.425041818 1265206.6666667 
12397.169292236      1243395 
12521.140985159 1221633.3333333 
12646.35239501      1200460 
12772.81591896 1177713.3333333 
12900.54407815 1155583.3333333 
13029.549518932      1133670 
13159.845014121 1116196.6666667 
13291.443464262      1099460 
13424.357898905      1083280 
13558.601477894      1061540 
13694.187492673 1043486.6666667 
13831.129367599      1025865 
13969.440661275 1011083.3333333 
14109.135067888       992678 
14250.226418567 975281.66666667 
14392.728682753       957876 
14536.65596958 942198.16666667 
14682.022529276 926961.33333333 
14828.842754569 907877.33333333 
14977.131182115 885094.33333333 
15126.902493936 883754.33333333 
15278.171518875 870227.66666667 
15430.953234064       856653 
15585.262766404 841427.33333333 
15741.115394068 818761.33333333 
15898.526548009 810269.14285714 
16057.511813489       793536 
16218.086931624       776278 
16380.26780094       755333 
16544.07047895       736122 
16709.511183739     705858.5 
16876.606295577       688207 
17045.372358532       665524 
17215.826082118     641557.5 
17387.984342939       619046 
17561.864186368       601962 
17737.482828232       585472 
17914.857656514     564128.5 
18094.006233079       542632 
18274.94629541       523411 
18457.695758364       509683 
18642.272715948       491627 
18828.695443107       477424 
19016.982397539     462146.5 
19207.152221514       445697 
19399.223743729     428550.5 
19593.215981166     414636.5 
19789.148140978       401239 
19987.039622388       389024 
20186.910018612       375697 
20388.779118798     363628.5 
20592.666909986       351111 
20798.593579086     339906.5 
21006.579514877       329109 
21216.645310025       318699 
21428.811763126       308701 
21643.099880757 295859.66666667 
21859.530879564       284567 
22078.12618836     276101.5 
22298.907450244       267554 
22521.896524746     259329.5 
22747.115489993 249023.66666667 
22974.586644893     239627.5 
23204.332511342       231050 
23436.375836456       222962 
23670.73959482     214632.5 
23907.446990769     208900.5 
24146.521460676       200913 
24387.986675283       193420 
24631.866542036 186423.66666667 
24878.185207456       180452 
25126.967059531 173750.33333333 
25378.236730126     167992.5 
25632.019097427       162285 
25888.339288402       157124 
26147.222681286       151461 
26408.694908098       145391 
26672.781857179       141093 
26939.509675751 136411.66666667 
27208.904772509 131128.33333333 
27480.993820234 126062.66666667 
27755.803758436     121942.5 
28033.361796021       117956 
28313.695413981       113647 
28596.832368121       109402 
28882.800691802 105388.33333333 
29171.62869872     101272.7 
29463.344985707 97669.566666667 
29757.978435564 94097.833333333 
30055.55821992 90903.433333333 
30356.113802119 87503.933333333 
30659.67494014 84413.366666667 
30966.271689541 81570.333333333 
31275.934406437      78587.3 
31588.693750501 76020.333333333 
31904.580688006     73636.58 
32223.626494886      70584.8 
32545.862759835      68339.2 
32871.321387434     65946.25 
33200.034601308      63088.2 
33532.034947321        61232 
33867.355296794     59047.45 
34206.028849762      56634.7 
34548.08913826      54909.7 
34893.570029642     53159.05 
35242.505729939        50940 
35594.930787238      48782.4 
35950.880095111      46895.5 
36310.388896062      45453.6 
36673.492785022     44066.65 
37040.227712872      42286.9 
37410.629990001        40654 
37784.736289901     39095.45 
38162.5836528      37581.2 
38544.209489328     36155.85 
38929.651584221      34778.2 
39318.948100064     33507.35 
39712.137581064     32220.95 
40109.258956875     31011.75 
40510.351546444     29909.45 
40915.455061908     28837.75 
41324.609612527      27797.2 
41737.855708653      26784.5 
42155.234265739     25871.65 
42576.786608396      24841.7 
43002.55447448     23590.65 
43432.580019225        22438 
43866.905819417      21270.8 
44305.574877612      20200.6 
44748.630626388      19491.3 
45196.116932652     18782.45 
45648.078101978 18081.066666667 
46104.558882998        17434 
46565.604471828     16970.35 
47031.260516546 16384.666666667 
47501.573121712        15780 
47976.588852929      15288.5 
48456.354741458 14726.966666667 
48940.918288873     14184.65 
49430.327471761 13653.566666667 
49924.630746479      13132.7 
50423.877053944 12658.466666667 
50928.115824483     12214.55 
51437.396982728 11785.833333333 
51951.770952555     11366.25 
52471.288662081      10980.9 
52996.001548702 10538.033333333 
53525.961564189        10192 
54061.221179831 9840.7866666667 
54601.833391629 9459.5933333333 
55147.851725545      9157.01 
55699.330242801 8860.5166666667 
56256.323545229      8520.75 
56818.886780681 8192.5666666667 
57387.075648488      7886.64 
57960.946404973 7587.5766666667 
58540.555869022 7300.5966666667 
59125.961427713 7028.4633333333 
59717.22104199 6767.8333333333 
60314.39325241      6513.62 
60917.537184934 6273.5966666667 
61526.712556783 6045.2333333333 
62141.979682351      5823.27 
62763.399479174 5613.7833333333 
63391.033473966 5411.6233333333 
64024.943808706      5177.12 
64665.193246793      4999.85 
65311.845179261      4825.04 
65964.963631053     4601.785 
66624.613267364      4442.47 
67290.859400038     4292.065 
67963.767994038     4100.275 
68643.405673978      3963.14 
69329.839730718     3831.935 
70023.138128025       3664.8 
70723.369509305      3508.62 
71430.603204399      3395.54 
72144.909236443      3286.22 
72866.358328807     3149.005 
73595.021912095     3018.465 
74330.972131216     2893.365 
75074.281852528      2776.03 
75825.024671053      2691.74 
76583.274917764      2610.74 
77349.107666942      2506.73 
78122.598743611      2407.81 
78903.824731047     2314.065 
79692.862978358       2224.6 
80489.791608141     2139.535 
81294.689524223      2058.66 
82107.636419465      1981.59 
82928.712783659      1907.58 
83757.999911496     1837.535 
84595.579910611      1754.36 
85441.535709717     1675.965 
86295.951066814     1616.465 
87158.910577482     1559.135 
88030.499683257       1504.6 
88910.80468009      1452.47 
89799.912726891 1390.4766666667 
90697.91185416     1330.785 
91604.890972701      1285.95 
92520.939882428 1232.5966666667 
93446.149281253     1181.775 
94380.610774065     1142.645 
95324.416881806 1096.6766666667 
96277.661050624      1051.81 
97240.43766113     1010.329 
98212.842037741      970.239 
99194.970458119     940.0865 
100186.9201627      918.822 
199060.83304441      59.7157 
399467.9878358      3.79037 
594753.39981818     0.750602 
793700.71765891     0.237299 
997811.18987739    0.0970155 
1193529.3359837    0.0466831 
1399507.0114645    0.0251429 
