#  WAVELENGTH	        FLUX	
#  (ANGSTROM)	(ERG/CM2/S/A)	
############	############	
        90.9   1.20157E-7 
    92.72709   4.28667E-7 
95.53681355409    1.4346E-6 
97.457103506527   2.93016E-6 
99.415991287008   6.65533E-6 
101.41425271188   1.80236E-5 
103.45267919139   3.70247E-5 
105.53207804313    7.4374E-5 
107.6532728118  0.000163319 
109.81710359532  0.000431126 
113.14467165136   0.00147219 
117.73879903054   0.00499634 
120.10534889105    0.0144497 
123.7446610678     0.039504 
126.23192875526    0.0743482 
127.49424804281     0.105278 
130.05688242847     0.182091 
131.35745125276     0.294683 
132.67102576529     0.426922 
135.33771338317     0.815804 
139.43858143639      1.70338 
142.24129692326      3.67249 
146.55135046134      8.28054 
150.99200293167      17.5701 
154.02694219059      38.6519 
158.69411256591      73.4563 
161.88386422848      126.917 
165.13772989948      243.844 
170.14156825316      474.853 
171.84298393569      751.805 
175.2970279128      1220.89 
178.82049817385      1944.91 
180.60870315558      2374.04 
186.0813274699      4180.85 
189.82156215205      7600.28 
193.6369755513      10663.5 
197.52907875988      17668.6 
201.49941324296        25467 
203.51440737539      35498.1 
209.68109743327      61209.2 
216.03464436659       104285 
218.19499081026       143792 
222.58071012555       189543 
224.8065172268       260205 
229.32512822306      5859620 
233.93456330034     22966000 
238.63664802268     66307200 
245.86757709442    419230000 
250.80951539401   1470890000 
255.85078665343   1091010000 
258.40929451997   5093830000 
263.60332133982  10017200000 
266.23935455322  15290800000 
271.59076557974  20436000000 
277.04973996789  22125700000 
282.61843974125  29263700000 
288.29907038004  32352100000 
294.09388169468  23655300000 
300.00516871675   4467900000 
306.03527260795  13003100000 
315.30844740325  30496700000 
324.86260866801  34624800000 
334.70627057326  33777300000 
344.8482052779  35475600000 
355.29745074603  38613300000 
362.43892950602  41085700000 
373.42119150899  40798200000 
384.7362270329  37811600000 
392.46942519626  40711800000 
404.36164124913  41541900000 
412.48931023824  41439100000 
420.78034537403  40119700000 
429.23803031605  39333700000 
437.8657147254  40696500000 
446.66681559138  40642000000 
455.64481858477  39708100000 
469.4513122327  40094800000 
478.88728360858  40770000000 
488.51291800911  39760000000 
498.3320276611  41297300000 
503.31534793771  60319700000 
508.34850141708 104762000000 
518.56630629557 102325000000 
528.98948905211 101267000000 
539.62217778206  93412600000 
545.01839955988  94349500000 
555.97326939103  99916300000 
567.14833210579  99288000000 
578.54801358112  95310300000 
584.33349371693  96459700000 
596.07859694064  93235500000 
608.05977673914  90805000000 
614.14037450653  93862000000 
626.48459603412  92137000000 
639.0769364144  91939500000 
645.46770577855  89782100000 
651.92238283633  86958700000 
658.44160666469  88086200000 
671.67628295866  88480400000 
678.39304578824  84655400000 
692.02874600859  85996100000 
698.94903346867  82353600000 
712.99790904139  84170900000 
720.12788813181  83340500000 
734.60245868325  82567300000 
741.94848327009  80698100000 
749.36796810279  79552600000 
764.43026426165  77853400000 
772.07456690427  77469400000 
779.79531257331  76431200000 
787.59326569905  75593600000 
803.4238903396  74721200000 
811.45812924299  73953700000 
819.57271053542  73450400000 
827.76843764078  69907700000 
844.40658323736  71264900000 
852.85064906973  70076800000 
861.37915556043  69729600000 
869.99294711603  68863200000 
878.69287658719  67902700000 
887.47980535306  66948800000 
896.3546034066  65532500000 
914.37133093507  53857400000 
923.51504424442  90353600000 
932.75019468686 118648000000 
942.07769663373 157062000000 
951.49847360007 170784000000 
961.01345833607 200954000000 
970.62359291943 146408000000 
980.32982884862 195085000000 
990.13312713711 177211000000 
1000.0344584085 187525000000 
1010.0348029926 182074000000 
1020.1351510225 131562000000 
1030.3365025327 171839000000 
1040.639867558 171457000000 
1051.0462662336 167372000000 
1061.556728896 160833000000 
1072.1722961849 156964000000 
1082.8940191468 144433000000 
1093.7229593382 150648000000 
1104.6601889316 144172500000 
1115.7067908209 136767000000 
1126.8638587291 136064000000 
1138.1324973164 132704000000 
1149.5138222896 128512000000 
1161.0089605125 125397000000 
1172.6190501176 114963000000 
1184.3452406188 117527000000 
1196.188693025 112246000000 
1208.1505799552  84292000000 
1220.2320857548 106716000000 
1232.4344066123 105382000000 
1244.7587506785 102031500000 
1257.2063381852  99207300000 
1269.7784015671  96969100000 
1282.4761855828  93596100000 
1295.3009474386  90367600000 
1308.253956913  88464600000 
1321.3364964821  86355200000 
1334.5498614469  83580200000 
1347.8953600614  80729300000 
1361.374313662  78826800000 
1374.9880567986  76126900000 
1388.7379373666  72983300000 
1402.6253167403  70924150000 
1416.6515699077  68877600000 
1430.8180856068 67223717647.059 
1445.1262664628 65152207692.308 
1459.5775291275  63414200000 
1474.1733044187  61565700000 
1488.9150374629  59667700000 
1503.8041878376 57935963636.364 
1518.8422297159  56073200000 
1534.0306520131  53346250000 
1549.3709585332  51414400000 
1564.8646681186  50861000000 
1580.5133147997  49090450000 
1596.3184479477  47286900000 
1612.2816324272  45860750000 
1628.4044487515  43625500000 
1644.688493239  42183950000 
1661.1353781714 41956190909.091 
1677.7467319531  40913000000 
1694.5241992726  39769850000 
1711.4694412654  38005150000 
1728.584135678  36983550000 
1745.8699770348  35894200000 
1763.3286768051  35019350000 
1780.9619635732  33773850000 
1798.7715832089  32585900000 
1816.759299041  31712900000 
1834.9268920314  30902150000 
1853.2761609517  29812600000 
1871.8089225613  28789950000 
1890.5270117869  27844150000 
1909.4322819047  26865150000 
1928.5266047238  26010050000 
1947.811870771 25076272727.273 
1967.2899894787 24331711764.706 
1986.9628893735 23538171428.571 
2006.8325182673  22769950000 
2026.9008434499  22037800000 
2047.1698518844  16482100000 
2067.6415504033  16578505000 
2088.3179659073  19226200000 
2109.2011455664  19461600000 
2130.293157022  18842400000 
2151.5960885923  18305500000 
2173.1120494782  17807400000 
2194.843169973 17226633333.333 
2216.7916016727  16804050000 
2238.9595176894  15995200000 
2261.3491128663  15826650000 
2283.962603995 15026066666.667 
2306.8022300349  14681000000 
2329.8702523353  14268800000 
2353.1689548586 13758433333.333 
2376.7006444072  13023450000 
2400.4676508513  12894100000 
2424.4723273598  12446000000 
2448.7170506334  12013250000 
2473.2042211397 11529766666.667 
2497.9362633511 10896108695.652 
2522.9156259846 10813718518.519 
2548.1447822445  10468400000 
2573.6262300669 10121393333.333 
2599.3624923676   9732540000 
2625.3561172913   9415225000 
2651.6096784642 9106586666.6667 
2678.1257752488   8813615000 
2704.9070330013 8533373333.3333 
2731.9561033313   8132190000 
2759.2756643647 7904696666.6667 
2786.8684210083   7664015000 
2814.7371052184 7421433333.3333 
2842.8844762706   7159640000 
2871.3133210333   6900910000 
2900.0264542436   6693680000 
2929.026718786   6449540000 
2958.3169859739   6228670000 
2987.9001558336   6010930000 
3017.779157392   5801400000 
3047.9569489659   5603870000 
3078.4365184556   5413380000 
3109.2208836401   5231530000 
3140.3130924765   5000510000 
3171.7162234013   4816440000 
3203.4333856353   4640520000 
3235.4677194916   4523630000 
3267.8223966866   4376895000 
3300.5006206534   4192930000 
3333.50562686   4057510000 
3366.8406831286   3932755000 
3400.5090899598   3768825000 
3434.5141808594   3646860000 
3468.859322668   3539945000 
3503.5479158947   3399450000 
3538.5833950537   3264755000 
3573.9692290042   3161610000 
3609.7089212942   3050130000 
3645.8060105072 2717966666.6667 
3682.2640706123   2631970000 
3719.0867113184   2579925000 
3756.2775784316   2556900000 
3793.8403542159   2502810000 
3831.778757758   2543240000 
3870.0965453356   2260390000 
3908.797510789   2440195000 
3947.8854858969   2235025000 
3987.3643407558   2273660000 
4027.2379841634   2180085000 
4067.510364005   2090720000 
4108.1854676451   1956075000 
4149.2673223215 1963526666.6667 
4190.7599955447   1871750000 
4232.6675955002   1819475000 
4274.9942714552   1754275000 
4317.7442141697   1590580000 
4360.9216563114   1629415000 
4404.5308728746   1585745000 
4448.5761816033 1512403333.3333 
4493.0619434193   1457965000 
4537.9925628535   1399775000 
4583.3724884821   1366865000 
4629.2062133669 1311613333.3333 
4675.4982755006   1238310000 
4722.2532582556   1221915000 
4769.4757908381 1174896666.6667 
4817.1705487465   1106975000 
4865.342254234 1054153333.3333 
4913.9956767763   1041220000 
4963.1356335441   1006235000 
5012.7669898795    969974000 
5062.8946597783 935360666.66667 
5113.5236063761    901543000 
5164.6588424398    869328000 
5216.3054308642    838449000 
5268.4684851729    809014000 
5321.1531700246 775326333.33333 
5374.3647017249    741797500 
5428.1083487421 722923666.66667 
5482.3894322295 693675666.66667 
5537.2133265518    665829000 
5592.5854598173    643687000 
5648.5113144155 620710333.33333 
5704.9964275597    570369000 
5762.0463918353    549115000 
5819.6668557536 528398333.33333 
5877.8635243112    515228000 
5936.6421595543 502888666.66667 
5996.0085811498    490667000 
6055.9686669613    475151000 
6116.5283536309    457935000 
6177.6936371672 441235666.66667 
6239.4705735389 425559333.33333 
6301.8652792743    410059000 
6364.883932067 395420333.33333 
6428.5327713877    379824500 
6492.8180991016 360799333.33333 
6557.7462800926 342122333.33333 
6623.3237428935 339391333.33333 
6689.5569803225    325776500 
6756.4525501257 314064666.66667 
6824.0170756269    301365750 
6892.2572463832    290447000 
6961.179818847    279541250 
7030.7916170355 268483333.33333 
7101.0995332059    258701500 
7172.1105285379    249268000 
7243.8316338233    240359250 
7316.2699501615    231877000 
7389.4326496631    223606750 
7463.3269761598    214595000 
7537.9602459214    205381000 
7613.3398483806 198877333.33333 
7689.4732468644    192040750 
7766.367979333    184576250 
7844.0316591264    177519750 
7922.4719757176    170755250 
8001.6966954748    164306750 
8081.7136624296    158159500 
8162.5307990539    149971000 
8244.1561070444    142875750 
8326.5976681148    137830000 
8409.863644796    132440800 
8493.9622812439    127524250 
8578.9019040564    123349500 
8664.6909230969    118845200 
8751.3378323279    115540000 
8838.8512106512    110699000 
8927.2397227577    107325800 
9016.5121199853    103442000 
9106.6772411851    100736260 
9197.744013597     94142200 
9289.721453733     93126580 
9382.6186682703     89806900 
9476.444854953     83812440 
9571.2093035025     82920425 
9666.9213965375     80171880 
9763.5906105029     77030240 
9861.226516608     74088060 
9959.838781774 70604346.666667 
10059.437169592     67173000 
10160.031541288     66221900 
10261.631856701     63706650 
10364.248175268     61334700 
10467.89065702     59161800 
10572.56956359     56494400 
10678.295259226     53980650 
10785.078211819     51889000 
10892.928993937     48706700 
11001.858283876     48429350 
11111.876866715     46820700 
11222.995635382 44836966.666667 
11335.225591736     42947350 
11448.577847653     41507150 
11563.06362613 39633666.666667 
11678.694262391     38164650 
11795.481205015     36922250 
11913.436017065 35392733.333333 
12032.570377236     34030500 
12152.896081008     32953500 
12274.425041818 31668966.666667 
12397.169292236     30441400 
12521.140985159     29271400 
12646.35239501     28161500 
12772.81591896 26539066.666667 
12900.54407815 25881566.666667 
13029.549518932     24944400 
13159.845014121 24035533.333333 
13291.443464262     23164850 
13424.357898905 22333666.666667 
13558.601477894     21387300 
13694.187492673 20489166.666667 
13831.129367599     19775800 
13969.440661275 19093866.666667 
14109.135067888     18313700 
14250.226418567 17572866.666667 
14392.728682753 16869066.666667 
14536.65596958     16200550 
14682.022529276 15530133.333333 
14828.842754569     14962300 
14977.131182115 14384233.333333 
15126.902493936     13838800 
15278.171518875 13315533.333333 
15430.953234064     12816200 
15585.262766404 12337833.333333 
15741.115394068     11881100 
15898.526548009 11402757.142857 
16057.511813489     10948500 
16218.086931624     10589800 
16380.26780094     10158400 
16544.07047895      9878310 
16709.511183739      9343555 
16876.606295577      9096660 
17045.372358532      8777370 
17215.826082118      8318550 
17387.984342939      8009990 
17561.864186368      7757670 
17737.482828232      7503730 
17914.857656514      7178095 
18094.006233079      6786895 
18274.94629541      6584325 
18457.695758364      6376350 
18642.272715948      6062825 
18828.695443107      5921635 
19016.982397539      5678565 
19207.152221514      5448355 
19399.223743729      5163790 
19593.215981166      5029960 
19789.148140978      4833420 
19987.039622388      4646215 
20186.910018612      4468080 
20388.779118798      4297105 
20592.666909986      4136640 
20798.593579086      3982430 
21006.579514877      3833040 
21216.645310025      3694990 
21428.811763126      3557995 
21643.099880757      3366710 
21859.530879564      3251625 
22078.12618836      3137315 
22298.907450244      3028010 
22521.896524746      2923415 
22747.115489993 2801266.6666667 
22974.586644893      2683920 
23204.332511342      2594010 
23436.375836456 2486916.6666667 
23670.73959482      2384965 
23907.446990769      2307215 
24146.521460676      2214640 
24387.986675283      2126350 
24631.866542036 2042246.6666667 
24878.185207456      1962815 
25126.967059531      1887090 
25378.236730126      1814725 
25632.019097427 1745683.3333333 
25888.339288402      1679310 
26147.222681286 1596733.3333333 
26408.694908098 1545963.3333333 
26672.781857179      1486040 
26939.509675751      1436330 
27208.904772509 1374586.6666667 
27480.993820234 1312093.3333333 
27755.803758436      1270390 
28033.361796021 1226296.6666667 
28313.695413981 1175746.6666667 
28596.832368121 1121563.3333333 
28882.800691802      1082330 
29171.62869872      1039090 
29463.344985707 997984.66666667 
29757.978435564       958882 
30055.55821992       917611 
30356.113802119 883584.33333333 
30659.67494014 852536.66666667 
30966.271689541       820392 
31275.934406437       789742 
31588.693750501 760499.66666667 
31904.580688006       733515 
32223.626494886       701679 
32545.862759835       676380 
32871.321387434     646932.5 
33200.034601308     622124.5 
33532.034947321       600379 
33867.355296794       579617 
34206.028849762       553273 
34548.08913826       534455 
34893.570029642     516503.5 
35242.505729939       493683 
35594.930787238       472100 
35950.880095111       451690 
36310.388896062       437061 
36673.492785022       423073 
37040.227712872     403522.5 
37410.629990001       386101 
37784.736289901     372351.5 
38162.5836528     357136.5 
38544.209489328       342703 
38929.651584221     328989.5 
39318.948100064     315949.5 
39712.137581064     303457.5 
40109.258956875       288995 
40510.351546444       280470 
40915.455061908     269801.5 
41324.609612527       259219 
41737.855708653       249914 
42155.234265739     240631.5 
42576.786608396       231764 
43002.55447448       223373 
43432.580019225     214806.5 
43866.905819417 205623.33333333 
44305.574877612     196727.5 
44748.630626388     189869.5 
45196.116932652       183280 
45648.078101978 175456.33333333 
46104.558882998       166166 
46565.604471828       161306 
47031.260516546 155634.66666667 
47501.573121712     149226.5 
47976.588852929     144344.5 
48456.354741458 138528.33333333 
48940.918288873       132982 
49430.327471761 127728.33333333 
49924.630746479       122715 
50423.877053944       117959 
50928.115824483       112588 
51437.396982728 109056.66666667 
51951.770952555       104982 
52471.288662081 101064.06666667 
52996.001548702      96593.6 
53525.961564189      93049.9 
54061.221179831      89677.6 
54601.833391629 85822.966666667 
55147.851725545     82762.95 
55699.330242801      79847.2 
56256.323545229 76510.233333333 
56818.886780681      73344.9 
57387.075648488      70342.7 
57960.946404973 67495.266666667 
58540.555869022 64339.566666667 
59125.961427713 62125.466666667 
59717.22104199 59771.933333333 
60314.39325241 57443.233333333 
60917.537184934        55226 
61526.712556783 53115.033333333 
62141.979682351 51099.533333333 
62763.399479174 49109.433333333 
63391.033473966      47357.1 
64024.943808706 45250.185714286 
64665.193246793        43675 
65311.845179261      42100.9 
65964.963631053      40106.1 
66624.613267364      38683.4 
67290.859400038      37233.8 
67963.767994038     35610.85 
68643.405673978      34383.8 
69329.839730718      33214.3 
70023.138128025     31727.95 
70723.369509305     30323.25 
71430.603204399      29317.8 
72144.909236443     28358.55 
72866.358328807     27136.65 
73595.021912095     25969.05 
74330.972131216     24408.15 
75074.281852528      23819.2 
75825.024671053      23099.8 
76583.274917764     22386.15 
77349.107666942     21474.95 
78122.598743611      20609.8 
78903.824731047      19787.7 
79692.862978358        19006 
80489.791608141     18262.15 
81294.689524223     17554.45 
82107.636419465     16881.15 
82928.712783659      16239.2 
83757.999911496      15627.5 
84595.579910611 14904.066666667 
85441.535709717     14219.35 
86295.951066814      13691.9 
87158.910577482     13117.95 
88030.499683257      12732.1 
88910.80468009     12280.15 
89799.912726891 11743.766666667 
90697.91185416     11234.45 
91604.890972701     10847.15 
92520.939882428      10387.1 
93446.149281253      9929.54 
94380.610774065     9616.805 
95324.416881806 9220.5666666667 
96277.661050624     8843.355 
97240.43766113 8486.3266666667 
98212.842037741      8146.02 
99194.970458119     7886.355 
100186.9201627      7698.16 
199060.83304441      476.619 
399467.9878358      29.1024 
594753.39981818      5.66614 
793700.71765891      1.77458 
997811.18987739     0.721325 
1193529.3359837     0.345808 
1399507.0114645      0.18577 
