#  WAVELENGTH	        FLUX	
#  (ANGSTROM)	(ERG/CM2/S/A)	
############	############	
578.54801358112  5.69843E-25 
584.33349371693  1.88235E-24 
596.07859694064  5.89971E-24 
608.05977673914  1.77694E-23 
614.14037450653  5.15271E-23 
626.48459603412  1.44133E-22 
639.0769364144  3.89772E-22 
645.46770577855  1.02025E-21 
651.92238283633  2.15389E-21 
658.44160666469  4.07685E-21 
671.67628295866  9.89648E-21 
678.39304578824  2.33662E-20 
692.02874600859  5.37231E-20 
698.94903346867  1.20419E-19 
712.99790904139  2.84516E-19 
720.12788813181  6.06726E-19 
734.60245868325  1.17714E-18 
741.94848327009  2.40954E-18 
749.36796810279   4.8319E-18 
764.43026426165  9.50024E-18 
772.07456690427  1.83302E-17 
779.79531257331  3.47286E-17 
787.59326569905  6.46496E-17 
803.4238903396  1.18369E-16 
811.45812924299   2.1324E-16 
819.57271053542  3.78254E-16 
827.76843764078   6.6109E-16 
844.40658323736  1.13891E-15 
852.85064906973  1.93486E-15 
861.37915556043  3.24327E-15 
869.99294711603  5.36587E-15 
878.69287658719  8.76956E-15 
887.47980535306  1.41592E-14 
896.3546034066  2.25948E-14 
914.37133093507    1.5417E-9 
923.51504424442   5.66533E-9 
932.75019468686   7.52578E-9 
942.07769663373   1.03402E-8 
951.49847360007   1.71738E-8 
961.01345833607   2.52805E-8 
970.62359291943   2.31521E-8 
980.32982884862   6.61765E-8 
990.13312713711   1.03389E-7 
1000.0344584085   1.22013E-7 
1010.0348029926    1.1611E-7 
1020.1351510225   1.79238E-7 
1030.3365025327   3.08085E-7 
1040.639867558   5.77088E-7 
1051.0462662336   7.81403E-7 
1061.556728896   1.45756E-6 
1072.1722961849   1.88179E-6 
1082.8940191468   3.17168E-6 
1093.7229593382   4.03775E-6 
1104.6601889316  1.118798E-5 
1115.7067908209   2.63495E-5 
1126.8638587291   4.02136E-5 
1138.1324973164   5.24655E-5 
1149.5138222896   5.67174E-5 
1161.0089605125   5.68305E-5 
1172.6190501176   6.52978E-5 
1184.3452406188   6.70294E-5 
1196.188693025    4.3567E-5 
1208.1505799552   1.26849E-5 
1220.2320857548   7.41273E-5 
1232.4344066123  0.000116073 
1244.7587506785 0.0003850675 
1257.2063381852  0.000893477 
1269.7784015671   0.00141603 
1282.4761855828  0.002663645 
1295.3009474386   0.00480274 
1308.253956913   0.00613822 
1321.3364964821   0.00771345 
1334.5498614469   0.01076204 
1347.8953600614    0.0153684 
1361.374313662      0.01818 
1374.9880567986    0.0228334 
1388.7379373666    0.0297431 
1402.6253167403   0.04269315 
1416.6515699077      0.05275 
1430.8180856068 0.080635817647059 
1445.1262664628 0.094659923076923 
1459.5775291275     0.130955 
1474.1733044187    0.1502255 
1488.9150374629     0.238172 
1503.8041878376 0.27092704545455 
1518.8422297159     0.373065 
1534.0306520131    0.9222805 
1549.3709585332      1.38153 
1564.8646681186     1.693435 
1580.5133147997      2.64691 
1596.3184479477      3.26213 
1612.2816324272     4.940655 
1628.4044487515      7.09231 
1644.688493239      9.51633 
1661.1353781714 14.525104545455 
1677.7467319531      25.7467 
1694.5241992726      34.8717 
1711.4694412654      42.5236 
1728.584135678      64.5321 
1745.8699770348      89.8004 
1763.3286768051      98.1852 
1780.9619635732     137.0675 
1798.7715832089      170.291 
1816.759299041      199.494 
1834.9268920314      223.619 
1853.2761609517      293.273 
1871.8089225613      374.276 
1890.5270117869     495.5255 
1909.4322819047     633.6325 
1928.5266047238      707.207 
1947.811870771 1017.7518181818 
1967.2899894787 1176.2941176471 
1986.9628893735 1495.1004761905 
2006.8325182673      1763.48 
2026.9008434499      2984.92 
2047.1698518844      3907.57 
2067.6415504033    6322.8115 
2088.3179659073    10747.335 
2109.2011455664      14637.2 
2130.293157022      18397.8 
2151.5960885923     20911.35 
2173.1120494782     26223.55 
2194.843169973 31438.533333333 
2216.7916016727      47137.9 
2238.9595176894      47417.7 
2261.3491128663     39456.85 
2283.962603995      57062.3 
2306.8022300349     58387.15 
2329.8702523353      39627.3 
2353.1689548586      55341.8 
2376.7006444072      32263.1 
2400.4676508513      47976.4 
2424.4723273598 119259.33333333 
2448.7170506334       131068 
2473.2042211397 74093.066666667 
2497.9362633511 71340.217391304 
2522.9156259846 73337.87037037 
2548.1447822445     148509.5 
2573.6262300669       153154 
2599.3624923676 107780.13333333 
2625.3561172913       267912 
2651.6096784642 350149.66666667 
2678.1257752488       331446 
2704.9070330013 271389.33333333 
2731.9561033313       228211 
2759.2756643647 280248.33333333 
2786.8684210083     53090.55 
2814.7371052184 325789.33333333 
2842.8844762706 191290.73333333 
2871.3133210333 423156.66666667 
2900.0264542436       574699 
2929.026718786     554900.5 
2958.3169859739       536808 
2987.9001558336       571367 
3017.779157392       611613 
3047.9569489659       640676 
3078.4365184556       565957 
3109.2208836401       603581 
3140.3130924765       583011 
3171.7162234013       600853 
3203.4333856353     684123.5 
3235.4677194916       882466 
3267.8223966866      1015105 
3300.5006206534     931943.5 
3333.50562686       884280 
3366.8406831286     694046.5 
3400.5090899598       935062 
3434.5141808594      1011230 
3468.859322668      1143965 
3503.5479158947      1246720 
3538.5833950537      1296030 
3573.9692290042      1182210 
3609.7089212942      1300916 
3645.8060105072 1445316.6666667 
3682.2640706123      1483570 
3719.0867113184      1261045 
3756.2775784316      1616450 
3793.8403542159      1474825 
3831.778757758      1481215 
3870.0965453356      1438650 
3908.797510789    1290326.5 
3947.8854858969      1455940 
3987.3643407558      2036665 
4027.2379841634      2037010 
4067.510364005      2106980 
4108.1854676451      2178155 
4149.2673223215 2123836.6666667 
4190.7599955447      2046795 
4232.6675955002      1890690 
4274.9942714552      1455465 
4317.7442141697      2019025 
4360.9216563114      1989680 
4404.5308728746      2347145 
4448.5761816033 2564363.3333333 
4493.0619434193      2675535 
4537.9925628535      2727855 
4583.3724884821      2762035 
4629.2062133669 2817406.6666667 
4675.4982755006      2848260 
4722.2532582556      2871350 
4769.4757908381 2876736.6666667 
4817.1705487465      2861460 
4865.342254234 2837696.6666667 
4913.9956767763      2875050 
4963.1356335441 2893236.6666667 
5012.7669898795      2910200 
5062.8946597783      2931440 
5113.5236063761      2888495 
5164.6588424398      2795940 
5216.3054308642      2951270 
5268.4684851729 2954666.6666667 
5321.1531700246 2966006.6666667 
5374.3647017249      2967695 
5428.1083487421 2983163.3333333 
5482.3894322295 3015613.3333333 
5537.2133265518 3012813.3333333 
5592.5854598173      3017875 
5648.5113144155 3029233.3333333 
5704.9964275597 3025333.3333333 
5762.0463918353 3028923.3333333 
5819.6668557536 3021226.6666667 
5877.8635243112      2982170 
5936.6421595543      3004170 
5996.0085811498 2990416.6666667 
6055.9686669613 2978556.6666667 
6116.5283536309      2932750 
6177.6936371672 2939753.3333333 
6239.4705735389 2923303.3333333 
6301.8652792743      2913370 
6364.883932067 2901373.3333333 
6428.5327713877      2869860 
6492.8180991016      2871480 
6557.7462800926      2795410 
6623.3237428935 2839413.3333333 
6689.5569803225    2824452.5 
6756.4525501257 2803006.6666667 
6824.0170756269    2782207.5 
6892.2572463832 2760303.3333333 
6961.179818847      2737260 
7030.7916170355 2715126.6666667 
7101.0995332059      2688095 
7172.1105285379 2660006.6666667 
7243.8316338233    2643562.5 
7316.2699501615 2621253.3333333 
7389.4326496631      2591830 
7463.3269761598    2568537.5 
7537.9602459214    2543262.5 
7613.3398483806 2515263.3333333 
7689.4732468644    2491142.5 
7766.367979333    2468162.5 
7844.0316591264      2440170 
7922.4719757176    2408167.5 
8001.6966954748      2381745 
8081.7136624296      2355295 
8162.5307990539      2322275 
8244.1561070444    2301767.5 
8326.5976681148      2264010 
8409.863644796      2238026 
8493.9622812439      2155420 
8578.9019040564    2184157.5 
8664.6909230969      2124146 
8751.3378323279    2120017.5 
8838.8512106512    2099332.5 
8927.2397227577      2068420 
9016.5121199853      2041975 
9106.6772411851      2013674 
9197.744013597      1980140 
9289.721453733      1957000 
9382.6186682703      1925110 
9476.444854953      1896136 
9571.2093035025      1870430 
9666.9213965375      1844366 
9763.5906105029      1817080 
9861.226516608      1789464 
9959.838781774 1764733.3333333 
10059.437169592      1735480 
10160.031541288      1709865 
10261.631856701      1682620 
10364.248175268      1657580 
10467.89065702      1632705 
10572.56956359      1599000 
10678.295259226      1568615 
10785.078211819      1540420 
10892.928993937      1517325 
11001.858283876      1497280 
11111.876866715      1475230 
11222.995635382 1448736.6666667 
11335.225591736      1420070 
11448.577847653      1403630 
11563.06362613 1374826.6666667 
11678.694262391      1353210 
11795.481205015      1328425 
11913.436017065 1306713.3333333 
12032.570377236      1286500 
12152.896081008      1271820 
12274.425041818      1249930 
12397.169292236      1229385 
12521.140985159      1209080 
12646.35239501      1189490 
12772.81591896      1167180 
12900.54407815      1148410 
13029.549518932      1130180 
13159.845014121 1112733.3333333 
13291.443464262      1096825 
13424.357898905      1081350 
13558.601477894 1062126.6666667 
13694.187492673      1044990 
13831.129367599      1029645 
13969.440661275 1015973.3333333 
14109.135067888 999341.66666667 
14250.226418567       984041 
14392.728682753 968754.33333333 
14536.65596958     954564.3 
14682.022529276 941115.33333333 
14828.842754569 926496.66666667 
14977.131182115 910603.66666667 
15126.902493936 902085.33333333 
15278.171518875 889032.66666667 
15430.953234064 876263.33333333 
15585.262766404 862621.66666667 
15741.115394068 844701.33333333 
15898.526548009 833508.28571429 
16057.511813489       814566 
16218.086931624     799675.5 
16380.26780094       774895 
16544.07047895       757307 
16709.511183739       724850 
16876.606295577       707141 
17045.372358532     685710.5 
17215.826082118     657221.5 
17387.984342939     635372.5 
17561.864186368       617492 
17737.482828232     600341.5 
17914.857656514     578232.5 
18094.006233079       554382 
18274.94629541     536556.5 
18457.695758364       521957 
18642.272715948       503092 
18828.695443107     489225.5 
19016.982397539       472422 
19207.152221514     455744.5 
19399.223743729       437433 
19593.215981166     424174.5 
19789.148140978       409995 
19987.039622388     396475.5 
20186.910018612     382836.5 
20388.779118798     370243.5 
20592.666909986     357719.5 
20798.593579086       345932 
21006.579514877       334763 
21216.645310025       323872 
21428.811763126     313476.5 
21643.099880757 299891.66666667 
21859.530879564     288905.5 
22078.12618836     279961.5 
22298.907450244       271211 
22521.896524746     262773.5 
22747.115489993 252051.33333333 
22974.586644893     242341.5 
23204.332511342     233359.5 
23436.375836456 225086.66666667 
23670.73959482       216635 
23907.446990769     210823.5 
24146.521460676 202731.66666667 
24387.986675283       195293 
24631.866542036 188590.33333333 
24878.185207456       182296 
25126.967059531       175602 
25378.236730126       169728 
25632.019097427 163879.33333333 
25888.339288402       158484 
26147.222681286       152519 
26408.694908098 146666.66666667 
26672.781857179       141971 
26939.509675751 137420.66666667 
27208.904772509       132084 
27480.993820234       126844 
27755.803758436     122765.5 
28033.361796021 118801.33333333 
28313.695413981 114371.33333333 
28596.832368121 109933.33333333 
28882.800691802 105949.66666667 
29171.62869872       101910 
29463.344985707      98169.5 
29757.978435564      94601.6 
30055.55821992        91151 
30356.113802119 87859.566666667 
30659.67494014 84748.366666667 
30966.271689541      81795.5 
31275.934406437 78828.933333333 
31588.693750501 76159.666666667 
31904.580688006     73682.02 
32223.626494886     70610.25 
32545.862759835      68289.7 
32871.321387434        65853 
33200.034601308     63007.35 
33532.034947321      61039.5 
33867.355296794     58918.95 
34206.028849762      56443.4 
34548.08913826      54681.2 
34893.570029642     52928.35 
35242.505729939     50702.55 
35594.930787238     48556.15 
35950.880095111     46630.95 
36310.388896062      45190.7 
36673.492785022     43812.15 
37040.227712872     42028.35 
37410.629990001      40351.3 
37784.736289901     38816.35 
38162.5836528     37305.25 
38544.209489328      35878.1 
38929.651584221     34499.95 
39318.948100064     33221.35 
39712.137581064     31950.25 
40109.258956875     30719.75 
40510.351546444      29640.2 
40915.455061908     28569.25 
41324.609612527     27526.15 
41737.855708653     26541.95 
42155.234265739      25612.8 
42576.786608396     24584.65 
43002.55447448      23464.4 
43432.580019225      22402.1 
43866.905819417 21328.733333333 
44305.574877612      20286.9 
44748.630626388     19612.15 
45196.116932652        18862 
45648.078101978 18127.033333333 
46104.558882998      17427.8 
46565.604471828      16919.1 
47031.260516546 16313.966666667 
47501.573121712     15699.25 
47976.588852929      15206.4 
48456.354741458      14649.9 
48940.918288873      14106.7 
49430.327471761      13583.9 
49924.630746479      13077.8 
50423.877053944 12598.166666667 
50928.115824483     12146.25 
51437.396982728      11723.3 
51951.770952555      11293.3 
52471.288662081 10909.733333333 
52996.001548702 10457.233333333 
53525.961564189     10109.25 
54061.221179831 9754.1166666667 
54601.833391629 9365.3433333333 
55147.851725545      9057.09 
55699.330242801 8761.2166666667 
56256.323545229 8419.1833333333 
56818.886780681      8090.19 
57387.075648488      7782.72 
57960.946404973 7485.4566666667 
58540.555869022 7199.9366666667 
59125.961427713      6930.41 
59717.22104199      6673.74 
60314.39325241 6422.8133333333 
60917.537184934      6185.97 
61526.712556783      5960.89 
62141.979682351 5742.8033333333 
62763.399479174 5535.3166666667 
63391.033473966 5337.0033333333 
64024.943808706 5107.5485714286 
64665.193246793      4935.66 
65311.845179261     4763.655 
65964.963631053     4544.705 
66624.613267364      4388.51 
67290.859400038      4239.05 
67963.767994038     4050.045 
68643.405673978      3914.39 
69329.839730718      3785.12 
70023.138128025       3620.4 
70723.369509305     3464.705 
71430.603204399         3353 
72144.909236443      3246.29 
72866.358328807     3110.225 
73595.021912095      2981.17 
74330.972131216       2856.9 
75074.281852528      2742.54 
75825.024671053       2659.1 
76583.274917764     2579.125 
77349.107666942      2476.89 
78122.598743611     2379.705 
78903.824731047     2287.215 
79692.862978358       2199.2 
80489.791608141     2115.355 
81294.689524223     2035.435 
82107.636419465      1959.34 
82928.712783659     1886.705 
83757.999911496     1817.435 
84595.579910611 1735.3933333333 
85441.535709717      1657.63 
86295.951066814      1598.66 
87158.910577482      1542.15 
88030.499683257     1488.355 
88910.80468009       1436.8 
89799.912726891 1375.5466666667 
90697.91185416      1317.17 
91604.890972701     1272.865 
92520.939882428      1220.14 
93446.149281253      1169.92 
94380.610774065     1131.645 
95324.416881806      1086.18 
96277.661050624     1042.525 
97240.43766113 1001.4806666667 
98212.842037741      962.284 
99194.970458119     932.2825 
100186.9201627      910.865 
199060.83304441      59.6647 
399467.9878358      3.79651 
594753.39981818     0.752206 
793700.71765891     0.237846 
997811.18987739     0.097238 
1193529.3359837    0.0467877 
1399507.0114645    0.0251967 
