#  WAVELENGTH	        FLUX	
#  (ANGSTROM)	(ERG/CM2/S/A)	
############	############	
545.01839955988  6.74179E-25 
555.97326939103  2.33402E-24 
567.14833210579  7.71492E-24 
578.54801358112   2.4147E-23 
584.33349371693  7.40592E-23 
596.07859694064  2.16034E-22 
608.05977673914   6.0699E-22 
614.14037450653   1.6457E-21 
626.48459603412  4.31317E-21 
639.0769364144  1.09515E-20 
645.46770577855   2.6965E-20 
651.92238283633  5.42831E-20 
658.44160666469  9.86497E-20 
671.67628295866  2.26282E-19 
678.39304578824   5.0566E-19 
692.02874600859  1.10213E-18 
698.94903346867  2.34524E-18 
712.99790904139  5.24265E-18 
720.12788813181  1.06456E-17 
734.60245868325  1.97875E-17 
741.94848327009  3.86636E-17 
749.36796810279  7.41069E-17 
764.43026426165  1.39427E-16 
772.07456690427  2.57698E-16 
779.79531257331   4.6824E-16 
787.59326569905  8.36763E-16 
803.4238903396  1.47245E-15 
811.45812924299  2.55165E-15 
819.57271053542   4.3582E-15 
827.76843764078   7.3409E-15 
844.40658323736  1.21979E-14 
852.85064906973  2.00062E-14 
861.37915556043  3.24001E-14 
869.99294711603   5.1838E-14 
878.69287658719  8.19815E-14 
887.47980535306  1.28188E-13 
896.3546034066  1.98253E-13 
914.37133093507   1.11531E-8 
923.51504424442   4.15338E-8 
932.75019468686   6.16877E-8 
942.07769663373   1.03225E-7 
951.49847360007   1.64621E-7 
961.01345833607    2.4064E-7 
970.62359291943   3.29148E-7 
980.32982884862   5.44114E-7 
990.13312713711   7.78672E-7 
1000.0344584085   1.15056E-6 
1010.0348029926   1.54875E-6 
1020.1351510225   2.37827E-6 
1030.3365025327   3.39884E-6 
1040.639867558   4.90083E-6 
1051.0462662336   6.88863E-6 
1061.556728896   9.54425E-6 
1072.1722961849   1.32622E-5 
1082.8940191468   1.82767E-5 
1093.7229593382   2.47616E-5 
1104.6601889316 0.0001105554 
1115.7067908209  0.000197893 
1126.8638587291  0.000251248 
1138.1324973164  0.000278298 
1149.5138222896   0.00027657 
1161.0089605125  0.000291425 
1172.6190501176  0.000262113 
1184.3452406188  0.001083278 
1196.188693025  0.000411282 
1208.1505799552  0.000209827 
1220.2320857548  0.000674419 
1232.4344066123  0.000954233 
1244.7587506785 0.0008798065 
1257.2063381852   0.00207719 
1269.7784015671   0.00330119 
1282.4761855828   0.00666887 
1295.3009474386    0.0114356 
1308.253956913    0.0167694 
1321.3364964821    0.0234412 
1334.5498614469   0.03875355 
1347.8953600614    0.0587761 
1361.374313662    0.0785498 
1374.9880567986     0.115511 
1388.7379373666     0.166812 
1402.6253167403     0.238912 
1416.6515699077      0.32478 
1430.8180856068 0.43730623529412 
1445.1262664628 0.58433307692308 
1459.5775291275     0.763808 
1474.1733044187    1.0036465 
1488.9150374629      1.42495 
1503.8041878376 1.7990781818182 
1518.8422297159      2.31307 
1534.0306520131      3.32101 
1549.3709585332      4.31974 
1564.8646681186     5.449015 
1580.5133147997     8.395775 
1596.3184479477      10.3464 
1612.2816324272      12.8248 
1628.4044487515      16.7845 
1644.688493239     19.15205 
1661.1353781714 26.010986363636 
1677.7467319531      34.5532 
1694.5241992726     40.12485 
1711.4694412654        52.89 
1728.584135678      69.3237 
1745.8699770348      83.6556 
1763.3286768051     97.67935 
1780.9619635732     125.8115 
1798.7715832089      154.034 
1816.759299041      174.112 
1834.9268920314     211.5805 
1853.2761609517      263.204 
1871.8089225613      328.655 
1890.5270117869      395.128 
1909.4322819047     499.2325 
1928.5266047238      603.187 
1947.811870771 751.31090909091 
1967.2899894787 876.01158823529 
1986.9628893735 1050.0052380952 
2006.8325182673       1207.7 
2026.9008434499      1524.82 
2047.1698518844     1731.525 
2067.6415504033      2275.85 
2088.3179659073     2856.215 
2109.2011455664      3352.34 
2130.293157022      3956.51 
2151.5960885923       5000.4 
2173.1120494782       6056.8 
2194.843169973 7390.7966666667 
2216.7916016727     9128.165 
2238.9595176894     9445.805 
2261.3491128663      9999.58 
2283.962603995 13450.633333333 
2306.8022300349        14444 
2329.8702523353      9524.11 
2353.1689548586      12238.6 
2376.7006444072     10495.68 
2400.4676508513     13918.15 
2424.4723273598 31050.133333333 
2448.7170506334     35407.45 
2473.2042211397      32619.7 
2497.9362633511 38997.965217391 
2522.9156259846 37634.203703704 
2548.1447822445      47783.2 
2573.6262300669 43362.266666667 
2599.3624923676      35826.2 
2625.3561172913     84590.25 
2651.6096784642 107959.83333333 
2678.1257752488     111452.5 
2704.9070330013 105442.83333333 
2731.9561033313 85515.733333333 
2759.2756643647     101246.9 
2786.8684210083     41602.65 
2814.7371052184       147158 
2842.8844762706       170398 
2871.3133210333 213131.33333333 
2900.0264542436       263971 
2929.026718786       271704 
2958.3169859739       306868 
2987.9001558336     331576.5 
3017.779157392       360575 
3047.9569489659       385771 
3078.4365184556       414487 
3109.2208836401     430815.5 
3140.3130924765       476898 
3171.7162234013       474832 
3203.4333856353       510196 
3235.4677194916       572310 
3267.8223966866     643369.5 
3300.5006206534     686578.5 
3333.50562686       693069 
3366.8406831286       703142 
3400.5090899598     805062.5 
3434.5141808594       845724 
3468.859322668     865635.5 
3503.5479158947     932158.5 
3538.5833950537       995997 
3573.9692290042       991072 
3609.7089212942      1061974 
3645.8060105072 1144876.6666667 
3682.2640706123      1401010 
3719.0867113184      1759495 
3756.2775784316      1970340 
3793.8403542159      2079670 
3831.778757758      2238870 
3870.0965453356      2146860 
3908.797510789      1785590 
3947.8854858969      1861970 
3987.3643407558      2561385 
4027.2379841634      2667670 
4067.510364005      2763190 
4108.1854676451      2788285 
4149.2673223215 2918756.6666667 
4190.7599955447      2931805 
4232.6675955002      3014245 
4274.9942714552      2840575 
4317.7442141697      3058785 
4360.9216563114      3194020 
4404.5308728746      3246375 
4448.5761816033 3353456.6666667 
4493.0619434193      3452395 
4537.9925628535      3490410 
4583.3724884821      3568835 
4629.2062133669 3642426.6666667 
4675.4982755006      3704330 
4722.2532582556      3762665 
4769.4757908381 3791383.3333333 
4817.1705487465      3797665 
4865.342254234 3730416.6666667 
4913.9956767763      3823690 
4963.1356335441 3841723.3333333 
5012.7669898795      3894695 
5062.8946597783 3925093.3333333 
5113.5236063761      3880035 
5164.6588424398 3832803.3333333 
5216.3054308642      3928120 
5268.4684851729 3932846.6666667 
5321.1531700246 3965526.6666667 
5374.3647017249      3973705 
5428.1083487421 3996863.3333333 
5482.3894322295 4021843.3333333 
5537.2133265518 4035986.6666667 
5592.5854598173      4041050 
5648.5113144155      4034500 
5704.9964275597      4046820 
5762.0463918353 4046006.6666667 
5819.6668557536      4033580 
5877.8635243112 4005996.6666667 
5936.6421595543 4013363.3333333 
5996.0085811498 3996543.3333333 
6055.9686669613 3979923.3333333 
6116.5283536309 3922996.6666667 
6177.6936371672 3933326.6666667 
6239.4705735389      3899540 
6301.8652792743 3889016.6666667 
6364.883932067 3869303.3333333 
6428.5327713877    3825022.5 
6492.8180991016      3811790 
6557.7462800926      3670450 
6623.3237428935      3774360 
6689.5569803225    3747187.5 
6756.4525501257 3714376.6666667 
6824.0170756269    3682522.5 
6892.2572463832 3650653.3333333 
6961.179818847      3616275 
7030.7916170355      3582820 
7101.0995332059    3545097.5 
7172.1105285379 3503006.6666667 
7243.8316338233    3474197.5 
7316.2699501615 3439766.6666667 
7389.4326496631    3398987.5 
7463.3269761598    3361362.5 
7537.9602459214    3324032.5 
7613.3398483806 3284806.6666667 
7689.4732468644      3246145 
7766.367979333      3209660 
7844.0316591264    3169542.5 
7922.4719757176    3126332.5 
8001.6966954748      3086985 
8081.7136624296      3047510 
8162.5307990539      3000910 
8244.1561070444    2964112.5 
8326.5976681148    2912977.5 
8409.863644796      2877812 
8493.9622812439    2757262.5 
8578.9019040564      2814470 
8664.6909230969      2723402 
8751.3378323279      2733955 
8838.8512106512      2689785 
8927.2397227577      2648738 
9016.5121199853      2608765 
9106.6772411851      2578034 
9197.744013597      2517355 
9289.721453733      2499056 
9382.6186682703      2451258 
9476.444854953      2402320 
9571.2093035025      2372565 
9666.9213965375      2335280 
9763.5906105029      2296962 
9861.226516608      2256648 
9959.838781774      2220276 
10059.437169592      2172825 
10160.031541288      2144360 
10261.631856701      2104420 
10364.248175268      2072220 
10467.89065702      2034295 
10572.56956359 1986703.3333333 
10678.295259226      1946295 
10785.078211819      1909705 
10892.928993937      1870890 
11001.858283876      1855285 
11111.876866715      1823655 
11222.995635382      1785600 
11335.225591736      1747870 
11448.577847653      1722470 
11563.06362613 1683816.6666667 
11678.694262391      1650365 
11795.481205015      1619800 
11913.436017065 1591103.3333333 
12032.570377236      1562280 
12152.896081008      1540600 
12274.425041818 1510763.3333333 
12397.169292236      1482500 
12521.140985159      1454220 
12646.35239501      1427825 
12772.81591896 1390876.6666667 
12900.54407815      1371350 
13029.549518932      1346680 
13159.845014121      1322500 
13291.443464262      1299920 
13424.357898905      1277850 
13558.601477894 1251383.3333333 
13694.187492673 1225603.3333333 
13831.129367599      1206120 
13969.440661275      1186310 
14109.135067888      1162870 
14250.226418567      1140560 
14392.728682753 1115836.6666667 
14536.65596958      1097188 
14682.022529276      1076160 
14828.842754569 1054443.3333333 
14977.131182115      1031080 
15126.902493936      1015690 
15278.171518875       994689 
15430.953234064       980668 
15585.262766404 962997.33333333 
15741.115394068       942023 
15898.526548009 935178.14285714 
16057.511813489       896116 
16218.086931624       891848 
16380.26780094       849264 
16544.07047895       842006 
16709.511183739     798309.5 
16876.606295577       784164 
17045.372358532     760237.5 
17215.826082118       721548 
17387.984342939     701586.5 
17561.864186368       681305 
17737.482828232     662049.5 
17914.857656514     637057.5 
18094.006233079     605889.5 
18274.94629541     589858.5 
18457.695758364       573413 
18642.272715948       548571 
18828.695443107       536191 
19016.982397539       517692 
19207.152221514       498922 
19399.223743729     475731.5 
19593.215981166       463830 
19789.148140978       447878 
19987.039622388     432546.5 
20186.910018612       417428 
20388.779118798       403360 
20592.666909986     389544.5 
20798.593579086       376460 
21006.579514877       363924 
21216.645310025     351846.5 
21428.811763126       340417 
21643.099880757 324344.66666667 
21859.530879564       313397 
22078.12618836     303421.5 
22298.907450244       293857 
22521.896524746     284440.5 
22747.115489993 273515.66666667 
22974.586644893       263047 
23204.332511342       254942 
23436.375836456       245293 
23670.73959482     236068.5 
23907.446990769       228945 
24146.521460676       220508 
24387.986675283     212457.5 
24631.866542036 204896.33333333 
24878.185207456       197417 
25126.967059531       190666 
25378.236730126       184595 
25632.019097427 177366.33333333 
25888.339288402       171971 
26147.222681286       164255 
26408.694908098       159121 
26672.781857179       152876 
26939.509675751 148740.33333333 
27208.904772509 142830.66666667 
27480.993820234       136583 
27755.803758436       132716 
28033.361796021 128421.66666667 
28313.695413981       123484 
28596.832368121 118274.66666667 
28882.800691802 114304.66666667 
29171.62869872 110027.33333333 
29463.344985707 105960.66666667 
29757.978435564 102070.33333333 
30055.55821992 98003.766666667 
30356.113802119 94763.033333333 
30659.67494014      91414.2 
30966.271689541 88150.266666667 
31275.934406437      85067.1 
31588.693750501 82111.666666667 
31904.580688006      79369.2 
32223.626494886      76123.3 
32545.862759835      73535.8 
32871.321387434      70827.3 
33200.034601308      67982.3 
33532.034947321      65726.8 
33867.355296794     63557.35 
34206.028849762      60839.7 
34548.08913826      58886.4 
34893.570029642     57006.15 
35242.505729939     54596.25 
35594.930787238     52337.75 
35950.880095111      50194.1 
36310.388896062      48595.5 
36673.492785022        47144 
37040.227712872      45281.7 
37410.629990001     43341.75 
37784.736289901        41753 
38162.5836528     40169.35 
38544.209489328      38628.4 
38929.651584221        37096 
39318.948100064     35753.55 
39712.137581064     34399.25 
40109.258956875      32964.7 
40510.351546444      31915.9 
40915.455061908      30755.4 
41324.609612527     29591.25 
41737.855708653      28577.3 
42155.234265739      27570.1 
42576.786608396      26596.5 
43002.55447448     25642.95 
43432.580019225     24687.25 
43866.905819417      23646.5 
44305.574877612      22627.4 
44748.630626388      21862.3 
45196.116932652     21137.75 
45648.078101978 20282.933333333 
46104.558882998      19422.1 
46565.604471828     18822.85 
47031.260516546      18113.1 
47501.573121712     17398.95 
47976.588852929     16849.45 
48456.354741458 16193.866666667 
48940.918288873     15569.85 
49430.327471761 14978.666666667 
49924.630746479     14411.05 
50423.877053944      13872.6 
50928.115824483      13341.9 
51437.396982728      12873.5 
51951.770952555      12408.5 
52471.288662081 11961.066666667 
52996.001548702 11457.266666667 
53525.961564189     11046.25 
54061.221179831 10668.266666667 
54601.833391629      10226.6 
55147.851725545     9868.255 
55699.330242801 9540.9166666667 
56256.323545229      9157.34 
56818.886780681      8785.75 
57387.075648488 8444.2233333333 
57960.946404973 8113.9233333333 
58540.555869022 7790.8466666667 
59125.961427713 7493.8333333333 
59717.22104199 7214.5066666667 
60314.39325241 6942.3733333333 
60917.537184934 6682.8133333333 
61526.712556783 6435.6866666667 
62141.979682351      6198.99 
62763.399479174 5969.1833333333 
63391.033473966      5758.63 
64024.943808706 5510.1314285714 
64665.193246793      5323.71 
65311.845179261      5138.01 
65964.963631053      4901.64 
66624.613267364         4733 
67290.859400038      4569.51 
67963.767994038     4367.555 
68643.405673978      4221.59 
69329.839730718     4081.675 
70023.138128025     3904.485 
70723.369509305     3736.105 
71430.603204399      3616.16 
72144.909236443      3500.51 
72866.358328807     3354.405 
73595.021912095      3215.29 
74330.972131216      3074.64 
75074.281852528     2958.065 
75825.024671053      2868.08 
76583.274917764     2781.835 
77349.107666942      2670.91 
78122.598743611     2566.805 
78903.824731047     2467.075 
79692.862978358      2372.09 
80489.791608141      2281.69 
81294.689524223      2194.76 
82107.636419465     2113.375 
82928.712783659     2035.045 
83757.999911496      1960.34 
84595.579910611 1871.8266666667 
85441.535709717     1787.955 
86295.951066814      1723.72 
87158.910577482     1662.675 
88030.499683257     1605.335 
88910.80468009     1549.725 
89799.912726891 1483.6133333333 
90697.91185416      1420.83 
91604.890972701     1373.035 
92520.939882428 1316.1333333333 
93446.149281253      1261.57 
94380.610774065      1220.79 
95324.416881806      1171.61 
96277.661050624      1124.83 
97240.43766113 1080.4266666667 
98212.842037741      1037.97 
99194.970458119     1005.734 
100186.9201627      982.309 
199060.83304441      64.1316 
399467.9878358      4.06351 
594753.39981818     0.803387 
793700.71765891     0.253698 
997811.18987739     0.103624 
1193529.3359837    0.0498225 
1399507.0114645    0.0268113 
