#  WAVELENGTH	        FLUX	
#  (ANGSTROM)	(ERG/CM2/S/A)	
############	############	
412.48931023824  1.36046E-24 
420.78034537403  5.60639E-24 
429.23803031605   2.1854E-23 
437.8657147254  1.30332E-22 
446.66681559138  6.09655E-22 
455.64481858477  2.30044E-21 
469.4513122327   9.4464E-21 
478.88728360858  3.64221E-20 
488.51291800911  1.32507E-19 
498.3320276611  4.55828E-19 
503.31534793771  1.23878E-18 
508.34850141708  2.79993E-18 
518.56630629557  6.89679E-18 
528.98948905211  2.05653E-17 
539.62217778206  5.78144E-17 
545.01839955988  1.57965E-16 
555.97326939103  4.12877E-16 
567.14833210579  1.04049E-15 
578.54801358112   2.5053E-15 
584.33349371693   5.9686E-15 
596.07859694064  1.36335E-14 
608.05977673914  3.02356E-14 
614.14037450653  6.52046E-14 
626.48459603412  1.36919E-13 
639.0769364144   2.8046E-13 
645.46770577855  5.60816E-13 
651.92238283633  9.60175E-13 
658.44160666469  1.51927E-12 
671.67628295866  2.87361E-12 
678.39304578824    5.325E-12 
692.02874600859  9.67592E-12 
698.94903346867   1.7256E-11 
712.99790904139  3.19423E-11 
720.12788813181  5.49112E-11 
734.60245868325  8.81947E-11 
741.94848327009  1.47135E-10 
749.36796810279  2.41771E-10 
764.43026426165  3.91565E-10 
772.07456690427  6.25406E-10 
779.79531257331  9.85622E-10 
787.59326569905   1.53327E-9 
803.4238903396   2.35662E-9 
811.45812924299   3.57913E-9 
819.57271053542   5.37456E-9 
827.76843764078   7.98389E-9 
844.40658323736   1.17347E-8 
852.85064906973   1.70724E-8 
861.37915556043   2.45949E-8 
869.99294711603   3.50958E-8 
878.69287658719   4.96342E-8 
887.47980535306   6.95731E-8 
896.3546034066   9.66912E-8 
914.37133093507   0.00113992 
923.51504424442   0.00453022 
932.75019468686    0.0058723 
942.07769663373   0.00876242 
951.49847360007    0.0127259 
961.01345833607    0.0160656 
970.62359291943    0.0167242 
980.32982884862     0.030244 
990.13312713711    0.0385167 
1000.0344584085    0.0506299 
1010.0348029926    0.0539668 
1020.1351510225    0.0639092 
1030.3365025327     0.107038 
1040.639867558     0.147025 
1051.0462662336     0.187579 
1061.556728896     0.235141 
1072.1722961849     0.300092 
1082.8940191468     0.379507 
1093.7229593382     0.463629 
1104.6601889316     1.673205 
1115.7067908209      2.79524 
1126.8638587291      3.55404 
1138.1324973164      3.89023 
1149.5138222896      3.73757 
1161.0089605125      3.93184 
1172.6190501176      3.58003 
1184.3452406188     5.161515 
1196.188693025      1.32281 
1208.1505799552     0.610153 
1220.2320857548      1.66742 
1232.4344066123      4.10638 
1244.7587506785     6.843525 
1257.2063381852      13.6972 
1269.7784015671      19.4105 
1282.4761855828      35.1227 
1295.3009474386      53.0822 
1308.253956913       70.319 
1321.3364964821      91.4838 
1334.5498614469       132.83 
1347.8953600614       178.22 
1361.374313662      223.099 
1374.9880567986      295.862 
1388.7379373666      386.927 
1402.6253167403      496.458 
1416.6515699077       622.36 
1430.8180856068      749.034 
1445.1262664628 935.08638461538 
1459.5775291275      1086.84 
1474.1733044187     1339.025 
1488.9150374629      1643.47 
1503.8041878376 1975.6181818182 
1518.8422297159      2303.51 
1534.0306520131      2710.37 
1549.3709585332      3114.45 
1564.8646681186     3483.305 
1580.5133147997     4482.735 
1596.3184479477       5086.4 
1612.2816324272      5882.96 
1628.4044487515      7167.56 
1644.688493239     8682.335 
1661.1353781714 21752.422727273 
1677.7467319531      67089.7 
1694.5241992726       138907 
1711.4694412654       285229 
1728.584135678       420170 
1745.8699770348       532114 
1763.3286768051     505749.5 
1780.9619635732     686460.5 
1798.7715832089     736095.5 
1816.759299041       698540 
1834.9268920314     753433.5 
1853.2761609517     839402.5 
1871.8089225613       942600 
1890.5270117869      1037295 
1909.4322819047      1185730 
1928.5266047238      1201015 
1947.811870771 1478481.8181818 
1967.2899894787 1539392.3529412 
1986.9628893735 1528315.2380952 
2006.8325182673      1503010 
2026.9008434499      1768545 
2047.1698518844      1815195 
2067.6415504033    2115035.5 
2088.3179659073      2046580 
2109.2011455664      2150750 
2130.293157022      2020740 
2151.5960885923      2150550 
2173.1120494782      2203045 
2194.843169973      2442770 
2216.7916016727      2585775 
2238.9595176894      2470950 
2261.3491128663      2517030 
2283.962603995      2692730 
2306.8022300349      2804115 
2329.8702523353      2353735 
2353.1689548586 2668656.6666667 
2376.7006444072      2231560 
2400.4676508513      2452785 
2424.4723273598 3130003.3333333 
2448.7170506334      3256900 
2473.2042211397 3082286.6666667 
2497.9362633511 3380595.2173913 
2522.9156259846 2912746.6666667 
2548.1447822445      3246165 
2573.6262300669 3561823.3333333 
2599.3624923676 3400456.6666667 
2625.3561172913      4250860 
2651.6096784642 4498246.6666667 
2678.1257752488      4463070 
2704.9070330013      4237070 
2731.9561033313      4032300 
2759.2756643647      4507200 
2786.8684210083      2693185 
2814.7371052184      5067420 
2842.8844762706      4794560 
2871.3133210333 5031496.6666667 
2900.0264542436      5540550 
2929.026718786      5439420 
2958.3169859739      5575210 
2987.9001558336      5686000 
3017.779157392      5808390 
3047.9569489659      5914020 
3078.4365184556      6070320 
3109.2208836401      6029605 
3140.3130924765      6278520 
3171.7162234013      6026670 
3203.4333856353      6123020 
3235.4677194916      6304460 
3267.8223966866      6543705 
3300.5006206534      6672720 
3333.50562686      6585600 
3366.8406831286      6592320 
3400.5090899598      6798210 
3434.5141808594      6827830 
3468.859322668      6819635 
3503.5479158947      6991355 
3538.5833950537      7081785 
3573.9692290042      6971280 
3609.7089212942      7125342 
3645.8060105072 7302003.3333333 
3682.2640706123      8219740 
3719.0867113184     11342100 
3756.2775784316     13597450 
3793.8403542159     14380600 
3831.778757758     16294450 
3870.0965453356     13174800 
3908.797510789     15614650 
3947.8854858969     14477000 
3987.3643407558     16803650 
4027.2379841634     16819950 
4067.510364005     16158100 
4108.1854676451     15033950 
4149.2673223215 16423566.666667 
4190.7599955447     16146650 
4232.6675955002     16054350 
4274.9942714552     15642500 
4317.7442141697     13897600 
4360.9216563114     15652600 
4404.5308728746     15517150 
4448.5761816033 15411866.666667 
4493.0619434193     15249050 
4537.9925628535     15062400 
4583.3724884821     15054200 
4629.2062133669     14916600 
4675.4982755006     14704150 
4722.2532582556     14635150 
4769.4757908381 14436366.666667 
4817.1705487465     13724800 
4865.342254234 13147033.333333 
4913.9956767763     13760700 
4963.1356335441 13639533.333333 
5012.7669898795     13501300 
5062.8946597783 13357366.666667 
5113.5236063761     13126200 
5164.6588424398 12782966.666667 
5216.3054308642     12760450 
5268.4684851729     12586200 
5321.1531700246 12405933.333333 
5374.3647017249     12244600 
5428.1083487421 12097066.666667 
5482.3894322295 11955666.666667 
5537.2133265518 11765366.666667 
5592.5854598173     11616100 
5648.5113144155 11467466.666667 
5704.9964275597 11294566.666667 
5762.0463918353 11117433.333333 
5819.6668557536 10938133.333333 
5877.8635243112     10729400 
5936.6421595543 10591866.666667 
5996.0085811498     10419400 
6055.9686669613 10253733.333333 
6116.5283536309 10060266.666667 
6177.6936371672      9923780 
6239.4705735389 9757673.3333333 
6301.8652792743      9606530 
6364.883932067 9452236.6666667 
6428.5327713877      9260700 
6492.8180991016 8961343.3333333 
6557.7462800926 8416003.3333333 
6623.3237428935 8820113.3333333 
6689.5569803225    8658222.5 
6756.4525501257      8498020 
6824.0170756269    8340247.5 
6892.2572463832      8186360 
6961.179818847    8034382.5 
7030.7916170355      7887210 
7101.0995332059      7738835 
7172.1105285379      7595230 
7243.8316338233    7458272.5 
7316.2699501615 7321893.3333333 
7389.4326496631    7185292.5 
7463.3269761598      7036670 
7537.9602459214    6892852.5 
7613.3398483806 6765766.6666667 
7689.4732468644      6642905 
7766.367979333    6504057.5 
7844.0316591264    6373137.5 
7922.4719757176      6241215 
8001.6966954748      6114725 
8081.7136624296    5990532.5 
8162.5307990539      5865680 
8244.1561070444    5752742.5 
8326.5976681148    5617052.5 
8409.863644796      5497540 
8493.9622812439      5328595 
8578.9019040564    5340467.5 
8664.6909230969      5165670 
8751.3378323279    5230172.5 
8838.8512106512      5022205 
8927.2397227577      4965434 
9016.5121199853    4881567.5 
9106.6772411851      4825416 
9197.744013597      4584855 
9289.721453733      4622764 
9382.6186682703      4506908 
9476.444854953      4305996 
9571.2093035025      4306580 
9666.9213965375      4218278 
9763.5906105029      4122632 
9861.226516608      4026046 
9959.838781774      3914180 
10059.437169592      3787025 
10160.031541288      3764495 
10261.631856701      3678620 
10364.248175268      3597060 
10467.89065702      3513480 
10572.56956359 3411136.6666667 
10678.295259226      3319360 
10785.078211819      3244700 
10892.928993937      3087365 
11001.858283876      3112565 
11111.876866715      3045335 
11222.995635382 2962996.6666667 
11335.225591736      2885015 
11448.577847653      2825885 
11563.06362613 2749263.3333333 
11678.694262391      2676070 
11795.481205015      2619575 
11913.436017065      2555000 
12032.570377236      2491925 
12152.896081008      2443535 
12274.425041818 2382076.6666667 
12397.169292236      2323275 
12521.140985159 2265386.6666667 
12646.35239501      2210445 
12772.81591896 2099876.6666667 
12900.54407815      2094780 
13029.549518932      2044705 
13159.845014121 1996073.3333333 
13291.443464262      1949160 
13424.357898905 1903576.6666667 
13558.601477894 1850386.6666667 
13694.187492673      1798350 
13831.129367599      1757805 
13969.440661275      1717570 
14109.135067888      1670540 
14250.226418567 1625203.3333333 
14392.728682753 1578423.3333333 
14536.65596958 1538806.6666667 
14682.022529276 1498053.3333333 
14828.842754569 1457103.3333333 
14977.131182115      1414910 
15126.902493936      1377580 
15278.171518875 1334786.6666667 
15430.953234064      1301050 
15585.262766404      1266160 
15741.115394068      1231180 
15898.526548009 1222127.1428571 
16057.511813489      1143700 
16218.086931624      1158300 
16380.26780094      1075890 
16544.07047895      1096420 
16709.511183739      1016897 
16876.606295577      1017610 
17045.372358532     986480.5 
17215.826082118     918148.5 
17387.984342939     905346.5 
17561.864186368       880338 
17737.482828232       854367 
17914.857656514     820464.5 
18094.006233079     764548.5 
18274.94629541       758241 
18457.695758364       736266 
18642.272715948       692964 
18828.695443107     686472.5 
19016.982397539       662588 
19207.152221514     637201.5 
19399.223743729     597258.5 
19593.215981166       592063 
19789.148140978       570839 
19987.039622388     550490.5 
20186.910018612     530902.5 
20388.779118798       512336 
20592.666909986       494430 
20798.593579086       477379 
21006.579514877       461009 
21216.645310025     445329.5 
21428.811763126     430083.5 
21643.099880757 405270.33333333 
21859.530879564       395564 
22078.12618836     382620.5 
22298.907450244     370254.5 
22521.896524746     358253.5 
22747.115489993       344156 
22974.586644893       330716 
23204.332511342     320413.5 
23436.375836456 308067.66666667 
23670.73959482       296234 
23907.446990769       287095 
24146.521460676 276234.33333333 
24387.986675283       265869 
24631.866542036 256214.66666667 
24878.185207456     246125.5 
25126.967059531 237444.33333333 
25378.236730126       230442 
25632.019097427 220582.33333333 
25888.339288402     214428.5 
26147.222681286 201800.66666667 
26408.694908098 198728.33333333 
26672.781857179       188315 
26939.509675751 185516.33333333 
27208.904772509       177985 
27480.993820234 168516.66666667 
27755.803758436       165198 
28033.361796021 159764.33333333 
28313.695413981 153525.33333333 
28596.832368121 145587.33333333 
28882.800691802       141939 
29171.62869872       136556 
29463.344985707 131429.66666667 
29757.978435564 126536.33333333 
30055.55821992       120725 
30356.113802119 116998.66666667 
30659.67494014 113153.33333333 
30966.271689541 109076.66666667 
31275.934406437 105202.33333333 
31588.693750501 101493.66666667 
31904.580688006      98059.6 
32223.626494886      94001.9 
32545.862759835      90764.3 
32871.321387434     86685.15 
33200.034601308     83691.55 
33532.034947321      80896.3 
33867.355296794     78231.25 
34206.028849762        74845 
34548.08913826      72411.9 
34893.570029642      70086.4 
35242.505729939      67114.8 
35594.930787238      64316.4 
35950.880095111        61688 
36310.388896062      59674.6 
36673.492785022     57913.45 
37040.227712872     55528.65 
37410.629990001      53005.9 
37784.736289901     51236.05 
38162.5836528      49276.3 
38544.209489328      47418.6 
38929.651584221      45386.9 
39318.948100064        43862 
39712.137581064     42135.85 
40109.258956875     40155.25 
40510.351546444      39116.5 
40915.455061908     37683.65 
41324.609612527     36080.75 
41737.855708653     34998.35 
42155.234265739     33750.15 
42576.786608396     32554.65 
43002.55447448     31412.55 
43432.580019225     30135.05 
43866.905819417 29009.433333333 
44305.574877612      27797.9 
44748.630626388     26871.55 
45196.116932652     25971.45 
45648.078101978      24898.6 
46104.558882998      23707.2 
46565.604471828      22934.2 
47031.260516546 22175.533333333 
47501.573121712      21291.9 
47976.588852929      20617.3 
48456.354741458 19813.133333333 
48940.918288873     19044.55 
49430.327471761 18314.533333333 
49924.630746479     17615.35 
50423.877053944      16953.3 
50928.115824483     16227.25 
51437.396982728 15717.833333333 
51951.770952555     15149.25 
52471.288662081 14590.633333333 
52996.001548702 13975.333333333 
53525.961564189      13457.2 
54061.221179831 13004.433333333 
54601.833391629 12461.666666667 
55147.851725545      12004.8 
55699.330242801 11619.633333333 
56256.323545229 11148.366666667 
56818.886780681      10678.9 
57387.075648488 10275.266666667 
57960.946404973 9871.9333333333 
58540.555869022 9454.0733333333 
59125.961427713      9097.41 
59717.22104199 8774.0966666667 
60314.39325241 8441.7466666667 
60917.537184934 8124.8866666667 
61526.712556783 7823.0133333333 
62141.979682351 7534.7933333333 
62763.399479174       7238.1 
63391.033473966 6997.4666666667 
64024.943808706 6694.6028571429 
64665.193246793      6467.72 
65311.845179261     6241.005 
65964.963631053      5953.13 
66624.613267364      5747.62 
67290.859400038      5539.58 
67963.767994038      5302.76 
68643.405673978      5125.07 
69329.839730718      4954.73 
70023.138128025     4739.225 
70723.369509305     4533.735 
71430.603204399      4388.42 
72144.909236443      4247.01 
72866.358328807      4070.04 
73595.021912095     3900.975 
74330.972131216     3711.475 
75074.281852528     3588.275 
75825.024671053      3478.94 
76583.274917764      3374.15 
77349.107666942      3237.62 
78122.598743611      3112.91 
78903.824731047      2991.78 
79692.862978358      2876.46 
80489.791608141      2766.66 
81294.689524223     2658.995 
82107.636419465      2562.35 
82928.712783659     2467.235 
83757.999911496     2376.545 
84595.579910611 2269.1466666667 
85441.535709717     2167.375 
86295.951066814      2086.94 
87158.910577482     2012.235 
88030.499683257     1945.795 
88910.80468009     1878.335 
89799.912726891 1798.1533333333 
90697.91185416     1721.955 
91604.890972701      1663.98 
92520.939882428      1594.97 
93446.149281253     1526.785 
94380.610774065     1479.355 
95324.416881806 1419.6733333333 
96277.661050624      1363.01 
97240.43766113 1309.2033333333 
98212.842037741     1257.515 
99194.970458119     1218.655 
100186.9201627      1190.22 
199060.83304441      77.7949 
399467.9878358      4.93893 
594753.39981818     0.977165 
793700.71765891     0.308684 
997811.18987739     0.126118 
1193529.3359837    0.0606537 
1399507.0114645    0.0326507 
