#  WAVELENGTH	        FLUX	
#  (ANGSTROM)	(ERG/CM2/S/A)	
############	############	
412.48931023824  1.41431E-24 
420.78034537403  5.70349E-24 
429.23803031605  2.17746E-23 
437.8657147254  1.26338E-22 
446.66681559138  5.77094E-22 
455.64481858477  2.13326E-21 
469.4513122327   8.5705E-21 
478.88728360858   3.2359E-20 
488.51291800911  1.15381E-19 
498.3320276611  3.89328E-19 
503.31534793771  1.04625E-18 
508.34850141708  2.33847E-18 
518.56630629557  5.67882E-18 
528.98948905211  1.66464E-17 
539.62217778206  4.60292E-17 
545.01839955988  1.23779E-16 
555.97326939103  3.18586E-16 
567.14833210579  7.91053E-16 
578.54801358112   1.8776E-15 
584.33349371693  4.41178E-15 
596.07859694064  9.94337E-15 
608.05977673914  2.17696E-14 
614.14037450653   4.6362E-14 
626.48459603412  9.61806E-14 
639.0769364144  1.94711E-13 
645.46770577855  3.84943E-13 
651.92238283633  6.53269E-13 
658.44160666469  1.02585E-12 
671.67628295866  1.91993E-12 
678.39304578824  3.52157E-12 
692.02874600859  6.33584E-12 
698.94903346867  1.11899E-11 
712.99790904139  2.05011E-11 
720.12788813181  3.49237E-11 
734.60245868325  5.56478E-11 
741.94848327009  9.20336E-11 
749.36796810279  1.49965E-10 
764.43026426165  2.40893E-10 
772.07456690427   3.8169E-10 
779.79531257331  5.96875E-10 
787.59326569905  9.21463E-10 
803.4238903396   1.40588E-9 
811.45812924299   2.11981E-9 
819.57271053542   3.16086E-9 
827.76843764078   4.66315E-9 
844.40658323736   6.80835E-9 
852.85064906973      9.84E-9 
861.37915556043   1.40854E-8 
869.99294711603   1.99745E-8 
878.69287658719   2.80759E-8 
887.47980535306   3.91208E-8 
896.3546034066   5.40562E-8 
914.37133093507  0.000557878 
923.51504424442   0.00241354 
932.75019468686   0.00322229 
942.07769663373   0.00477587 
951.49847360007   0.00682103 
961.01345833607    0.0089819 
970.62359291943   0.00985316 
980.32982884862    0.0167094 
990.13312713711    0.0219864 
1000.0344584085    0.0288565 
1010.0348029926     0.032478 
1020.1351510225    0.0373209 
1030.3365025327    0.0584811 
1040.639867558    0.0855074 
1051.0462662336     0.105665 
1061.556728896     0.139675 
1072.1722961849     0.179038 
1082.8940191468      0.23244 
1093.7229593382        0.283 
1104.6601889316    0.6734645 
1115.7067908209      1.07855 
1126.8638587291      1.47853 
1138.1324973164      1.75865 
1149.5138222896      1.88655 
1161.0089605125       2.1296 
1172.6190501176      2.25846 
1184.3452406188      2.29464 
1196.188693025      1.20085 
1208.1505799552     0.756307 
1220.2320857548      1.58487 
1232.4344066123      3.33846 
1244.7587506785      5.35423 
1257.2063381852      10.5823 
1269.7784015671      14.6268 
1282.4761855828      24.4238 
1295.3009474386      36.7147 
1308.253956913      45.9315 
1321.3364964821      58.5195 
1334.5498614469     79.19165 
1347.8953600614      102.268 
1361.374313662      126.951 
1374.9880567986     158.9275 
1388.7379373666      199.688 
1402.6253167403     250.3935 
1416.6515699077      303.444 
1430.8180856068 365.93894117647 
1445.1262664628 442.91138461538 
1459.5775291275      500.617 
1474.1733044187     615.4485 
1488.9150374629      746.372 
1503.8041878376     889.8665 
1518.8422297159      1025.39 
1534.0306520131     1198.405 
1549.3709585332      1361.84 
1564.8646681186      1503.99 
1580.5133147997       1867.5 
1596.3184479477      2105.93 
1612.2816324272      2549.19 
1628.4044487515      3180.44 
1644.688493239     3893.405 
1661.1353781714 5467.8968181818 
1677.7467319531      7910.71 
1694.5241992726     20643.35 
1711.4694412654    113862.85 
1728.584135678       311923 
1745.8699770348       498504 
1763.3286768051     510057.5 
1780.9619635732     775654.5 
1798.7715832089     840006.5 
1816.759299041       802544 
1834.9268920314     831402.5 
1853.2761609517       960951 
1871.8089225613      1083760 
1890.5270117869      1199490 
1909.4322819047      1361100 
1928.5266047238      1335515 
1947.811870771 1698061.8181818 
1967.2899894787 1751639.4117647 
1986.9628893735      1741160 
2006.8325182673      1699105 
2026.9008434499      2036005 
2047.1698518844      2117265 
2067.6415504033    2446375.5 
2088.3179659073      2355535 
2109.2011455664      2485700 
2130.293157022      2410525 
2151.5960885923      2494195 
2173.1120494782      2564705 
2194.843169973 2866356.6666667 
2216.7916016727      3084745 
2238.9595176894      2959420 
2261.3491128663      2899195 
2283.962603995 3111556.6666667 
2306.8022300349      3283555 
2329.8702523353      2771225 
2353.1689548586 3154363.3333333 
2376.7006444072      2622715 
2400.4676508513      2868795 
2424.4723273598      3652820 
2448.7170506334      3830870 
2473.2042211397 3440186.6666667 
2497.9362633511 3732025.6521739 
2522.9156259846 3171314.4444444 
2548.1447822445      3659420 
2573.6262300669      4111940 
2599.3624923676 3922163.3333333 
2625.3561172913      4929040 
2651.6096784642 5277126.6666667 
2678.1257752488      5254570 
2704.9070330013 4909133.3333333 
2731.9561033313 4647943.3333333 
2759.2756643647      5243650 
2786.8684210083      2815950 
2814.7371052184 5909633.3333333 
2842.8844762706      5271910 
2871.3133210333 5863853.3333333 
2900.0264542436      6419190 
2929.026718786      6277505 
2958.3169859739      6396490 
2987.9001558336      6442690 
3017.779157392      6565870 
3047.9569489659      6722110 
3078.4365184556      6782890 
3109.2208836401      6804510 
3140.3130924765      7004355 
3171.7162234013      6740800 
3203.4333856353      6819215 
3235.4677194916      7072370 
3267.8223966866      7424690 
3300.5006206534      7515965 
3333.50562686      7426190 
3366.8406831286      7300365 
3400.5090899598      7492455 
3434.5141808594      7515290 
3468.859322668      7581365 
3503.5479158947      7667235 
3538.5833950537      7766515 
3573.9692290042      7563490 
3609.7089212942      7761834 
3645.8060105072 8034946.6666667 
3682.2640706123      7948725 
3719.0867113184      8601480 
3756.2775784316      9697150 
3793.8403542159      9955630 
3831.778757758     10847950 
3870.0965453356      9580530 
3908.797510789     10256835 
3947.8854858969      9999415 
3987.3643407558     11319950 
4027.2379841634     11320100 
4067.510364005     11133350 
4108.1854676451     10642750 
4149.2673223215     11243400 
4190.7599955447     11064300 
4232.6675955002     11053950 
4274.9942714552     10756050 
4317.7442141697     10248355 
4360.9216563114     11010800 
4404.5308728746     10970200 
4448.5761816033     10953000 
4493.0619434193     10930350 
4537.9925628535     10870300 
4583.3724884821     10867900 
4629.2062133669     10818600 
4675.4982755006     10732900 
4722.2532582556     10692150 
4769.4757908381 10608666.666667 
4817.1705487465     10319400 
4865.342254234 9949343.3333333 
4913.9956767763     10229300 
4963.1356335441     10179700 
5012.7669898795     10112500 
5062.8946597783 10049066.666667 
5113.5236063761      9910075 
5164.6588424398 9668706.6666667 
5216.3054308642      9724970 
5268.4684851729 9625933.3333333 
5321.1531700246 9512666.6666667 
5374.3647017249      9416365 
5428.1083487421 9337243.3333333 
5482.3894322295 9276916.6666667 
5537.2133265518 9156073.3333333 
5592.5854598173      9069470 
5648.5113144155 8987446.6666667 
5704.9964275597 8879903.3333333 
5762.0463918353 8771796.6666667 
5819.6668557536 8658736.6666667 
5877.8635243112 8517433.3333333 
5936.6421595543 8437876.6666667 
5996.0085811498 8325796.6666667 
6055.9686669613      8217900 
6116.5283536309 8082596.6666667 
6177.6936371672 7997223.3333333 
6239.4705735389      7888110 
6301.8652792743      7784880 
6364.883932067 7680183.3333333 
6428.5327713877    7546477.5 
6492.8180991016      7367400 
6557.7462800926      6995110 
6623.3237428935 7243893.3333333 
6689.5569803225    7130352.5 
6756.4525501257 7016483.3333333 
6824.0170756269    6903987.5 
6892.2572463832      6793720 
6961.179818847    6683902.5 
7030.7916170355      6576920 
7101.0995332059      6468575 
7172.1105285379 6362186.6666667 
7243.8316338233    6261772.5 
7316.2699501615 6161063.3333333 
7389.4326496631      6058080 
7463.3269761598    5948367.5 
7537.9602459214    5839637.5 
7613.3398483806 5743073.3333333 
7689.4732468644    5650302.5 
7766.367979333      5546820 
7844.0316591264    5445647.5 
7922.4719757176    5343252.5 
8001.6966954748      5246180 
8081.7136624296      5150150 
8162.5307990539    5051317.5 
8244.1561070444      4963410 
8326.5976681148    4866472.5 
8409.863644796      4768156 
8493.9622812439      4619255 
8578.9019040564      4584930 
8664.6909230969      4446098 
8751.3378323279      4425295 
8838.8512106512      4305865 
8927.2397227577      4234046 
9016.5121199853      4165520 
9106.6772411851      4099950 
9197.744013597    3957747.5 
9289.721453733      3939328 
9382.6186682703      3849990 
9476.444854953      3722500 
9571.2093035025      3694000 
9666.9213965375      3622276 
9763.5906105029      3545096 
9861.226516608      3468804 
9959.838781774 3389905.3333333 
10059.437169592      3295905 
10160.031541288      3259675 
10261.631856701      3191170 
10364.248175268      3125295 
10467.89065702      3059665 
10572.56956359      2977770 
10678.295259226      2903155 
10785.078211819      2841385 
10892.928993937      2737640 
11001.858283876      2734275 
11111.876866715      2679790 
11222.995635382      2613470 
11335.225591736      2549560 
11448.577847653      2501330 
11563.06362613      2439850 
11678.694262391      2381335 
11795.481205015      2334235 
11913.436017065 2279596.6666667 
12032.570377236      2228400 
12152.896081008      2189580 
12274.425041818      2139480 
12397.169292236      2091320 
12521.140985159      2044470 
12646.35239501      1999310 
12772.81591896 1915443.3333333 
12900.54407815 1904983.3333333 
13029.549518932      1863930 
13159.845014121      1824270 
13291.443464262      1786135 
13424.357898905 1749136.6666667 
13558.601477894 1705813.3333333 
13694.187492673 1664013.3333333 
13831.129367599      1630665 
13969.440661275 1597906.6666667 
14109.135067888      1559560 
14250.226418567      1522690 
14392.728682753      1485400 
14536.65596958 1452073.6666667 
14682.022529276 1418386.6666667 
14828.842754569 1384246.6666667 
14977.131182115      1350520 
15126.902493936      1321430 
15278.171518875 1289006.6666667 
15430.953234064 1257463.3333333 
15585.262766404 1225393.3333333 
15741.115394068 1191096.6666667 
15898.526548009 1167631.4285714 
16057.511813489      1115130 
16218.086931624      1106615 
16380.26780094      1045020 
16544.07047895      1047535 
16709.511183739     978360.5 
16876.606295577       973051 
17045.372358532     943544.5 
17215.826082118       882069 
17387.984342939     866557.5 
17561.864186368       843064 
17737.482828232     818235.5 
17914.857656514       785744 
18094.006233079       733904 
18274.94629541     726509.5 
18457.695758364       705687 
18642.272715948     664491.5 
18828.695443107       658049 
19016.982397539     635318.5 
19207.152221514     610870.5 
19399.223743729     573219.5 
19593.215981166     567880.5 
19789.148140978     547621.5 
19987.039622388     528204.5 
20186.910018612     509422.5 
20388.779118798     491676.5 
20592.666909986     474484.5 
20798.593579086     458150.5 
21006.579514877       442516 
21216.645310025     427501.5 
21428.811763126     412736.5 
21643.099880757 389081.66666667 
21859.530879564       379705 
22078.12618836       367333 
22298.907450244     355429.5 
22521.896524746     343944.5 
22747.115489993 330350.33333333 
22974.586644893       317389 
23204.332511342       307473 
23436.375836456 295649.66666667 
23670.73959482     284311.5 
23907.446990769       275649 
24146.521460676 265261.33333333 
24387.986675283       255367 
24631.866542036       246001 
24878.185207456     236907.5 
25126.967059531       228350 
25378.236730126     220473.5 
25632.019097427 212112.33333333 
25888.339288402     204914.5 
26147.222681286 194235.33333333 
26408.694908098 189636.33333333 
26672.781857179       181653 
26939.509675751 177001.33333333 
27208.904772509       169824 
27480.993820234       161780 
27755.803758436     157633.5 
28033.361796021       152452 
28313.695413981 146504.33333333 
28596.832368121 139586.33333333 
28882.800691802 135455.33333333 
29171.62869872       130318 
29463.344985707 125425.66666667 
29757.978435564 120759.33333333 
30055.55821992       115521 
30356.113802119 111743.66666667 
30659.67494014       107990 
30966.271689541       104099 
31275.934406437     100400.9 
31588.693750501 96861.733333333 
31904.580688006      93580.1 
32223.626494886        89706 
32545.862759835      86617.5 
32871.321387434      82994.7 
33200.034601308        79980 
33532.034947321      77303.9 
33867.355296794      74745.9 
34206.028849762     71503.65 
34548.08913826      69176.8 
34893.570029642     66952.35 
35242.505729939      64114.5 
35594.930787238     61425.65 
35950.880095111     58881.05 
36310.388896062      57047.5 
36673.492785022        55288 
37040.227712872     52958.35 
37410.629990001     50680.35 
37784.736289901     48905.45 
38162.5836528      46996.2 
38544.209489328     45177.65 
38929.651584221      43404.4 
39318.948100064      41786.3 
39712.137581064     40187.05 
40109.258956875     38442.85 
40510.351546444      37268.4 
40915.455061908      35902.4 
41324.609612527     34525.45 
41737.855708653     33346.35 
42155.234265739      32158.4 
42576.786608396     31020.25 
43002.55447448     29930.75 
43432.580019225      28815.6 
43866.905819417      27647.6 
44305.574877612     26480.65 
44748.630626388      25587.8 
45196.116932652      24732.2 
45648.078101978 23712.333333333 
46104.558882998     22624.65 
46565.604471828      21929.2 
47031.260516546      21120.2 
47501.573121712      20279.5 
47976.588852929      19638.6 
48456.354741458 18872.666666667 
48940.918288873     18142.55 
49430.327471761 17449.166666667 
49924.630746479     16786.35 
50423.877053944      16156.4 
50928.115824483      15502.7 
51437.396982728      14982.5 
51951.770952555     14433.75 
52471.288662081 13911.933333333 
52996.001548702 13316.533333333 
53525.961564189     12842.25 
54061.221179831      12391.9 
54601.833391629 11875.366666667 
55147.851725545     11462.85 
55699.330242801 11073.533333333 
56256.323545229 10624.866666667 
56818.886780681 10195.633333333 
57387.075648488      9793.53 
57960.946404973 9408.5666666667 
58540.555869022 9022.7633333333 
59125.961427713 8688.9333333333 
59717.22104199 8361.5733333333 
60314.39325241       8045.2 
60917.537184934      7743.64 
61526.712556783 7456.1466666667 
62141.979682351      7181.67 
62763.399479174 6914.4633333333 
63391.033473966 6670.0933333333 
64024.943808706 6381.7128571429 
64665.193246793      6165.62 
65311.845179261      5949.77 
65964.963631053     5675.625 
66624.613267364      5479.85 
67290.859400038     5289.355 
67963.767994038     5056.315 
68643.405673978       4886.8 
69329.839730718     4725.105 
70023.138128025      4519.27 
70723.369509305     4324.565 
71430.603204399      4185.04 
72144.909236443     4051.725 
72866.358328807     3881.755 
73595.021912095     3720.635 
74330.972131216     3552.465 
75074.281852528     3422.675 
75825.024671053      3318.43 
76583.274917764      3218.57 
77349.107666942       3090.8 
78122.598743611       2969.6 
78903.824731047      2854.11 
79692.862978358     2744.215 
80489.791608141      2639.56 
81294.689524223      2539.48 
82107.636419465      2444.77 
82928.712783659      2354.14 
83757.999911496      2267.65 
84595.579910611 2165.2633333333 
85441.535709717     2068.245 
86295.951066814     1994.045 
87158.910577482     1922.345 
88030.499683257     1857.015 
88910.80468009      1792.63 
89799.912726891 1716.1933333333 
90697.91185416     1643.525 
91604.890972701      1588.25 
92520.939882428 1522.5133333333 
93446.149281253       1459.3 
94380.610774065       1412.2 
95324.416881806      1355.37 
96277.661050624      1301.21 
97240.43766113 1249.8833333333 
98212.842037741     1200.915 
99194.970458119      1163.53 
100186.9201627      1136.38 
199060.83304441      74.4768 
399467.9878358      4.74374 
594753.39981818     0.940569 
793700.71765891     0.297599 
997811.18987739     0.121737 
1193529.3359837    0.0586025 
1399507.0114645    0.0315702 
