#  WAVELENGTH	        FLUX	
#  (ANGSTROM)	(ERG/CM2/S/A)	
############	############	
503.31534793771  1.29446E-24 
508.34850141708  3.29313E-24 
518.56630629557  9.47704E-24 
528.98948905211  3.40894E-23 
539.62217778206  1.14881E-22 
545.01839955988  3.73628E-22 
555.97326939103  1.15547E-21 
567.14833210579  3.42513E-21 
578.54801358112  9.64873E-21 
584.33349371693   2.6738E-20 
596.07859694064  7.06998E-20 
608.05977673914   1.8064E-19 
614.14037450653  4.46754E-19 
626.48459603412  1.07115E-18 
639.0769364144   2.4951E-18 
645.46770577855  5.65097E-18 
651.92238283633  1.06598E-17 
658.44160666469  1.83235E-17 
671.67628295866   3.8899E-17 
678.39304578824   8.0625E-17 
692.02874600859  1.63358E-16 
698.94903346867  3.23806E-16 
712.99790904139  6.71037E-16 
720.12788813181  1.27448E-15 
734.60245868325  2.23392E-15 
741.94848327009  4.09648E-15 
749.36796810279  7.38095E-15 
764.43026426165  1.30756E-14 
772.07456690427  2.27911E-14 
779.79531257331  3.91112E-14 
787.59326569905  6.61039E-14 
803.4238903396  1.10172E-13 
811.45812924299  1.81076E-13 
819.57271053542  2.93685E-13 
827.76843764078  4.70329E-13 
844.40658323736  7.43938E-13 
852.85064906973  1.16283E-12 
861.37915556043  1.79673E-12 
869.99294711603  2.74557E-12 
878.69287658719  4.15141E-12 
887.47980535306  6.21233E-12 
896.3546034066  9.20453E-12 
914.37133093507   5.07573E-7 
923.51504424442   1.84785E-6 
932.75019468686   2.59386E-6 
942.07769663373   4.17719E-6 
951.49847360007   6.36004E-6 
961.01345833607   8.77154E-6 
970.62359291943   1.15144E-5 
980.32982884862   1.89486E-5 
990.13312713711   2.63187E-5 
1000.0344584085   3.70469E-5 
1010.0348029926   4.64229E-5 
1020.1351510225   6.45225E-5 
1030.3365025327   0.00010068 
1040.639867558  0.000142775 
1051.0462662336  0.000191526 
1061.556728896  0.000260673 
1072.1722961849  0.000351621 
1082.8940191468   0.00047375 
1093.7229593382  0.000619659 
1104.6601889316  0.002341255 
1115.7067908209   0.00449026 
1126.8638587291   0.00626177 
1138.1324973164   0.00726751 
1149.5138222896   0.00739552 
1161.0089605125   0.00789198 
1172.6190501176   0.00771021 
1184.3452406188   0.01278972 
1196.188693025    0.0074377 
1208.1505799552   0.00368889 
1220.2320857548    0.0116133 
1232.4344066123    0.0164102 
1244.7587506785     0.026955 
1257.2063381852    0.0600047 
1269.7784015671    0.0921001 
1282.4761855828     0.181292 
1295.3009474386     0.303237 
1308.253956913     0.424611 
1321.3364964821     0.583822 
1334.5498614469     0.885925 
1347.8953600614       1.2648 
1361.374313662      1.67141 
1374.9880567986     2.264495 
1388.7379373666      3.07227 
1402.6253167403     4.221125 
1416.6515699077      5.38427 
1430.8180856068 7.0749129411765 
1445.1262664628 8.9783769230769 
1459.5775291275      10.9916 
1474.1733044187     13.97305 
1488.9150374629      18.8751 
1503.8041878376 22.941290909091 
1518.8422297159      28.0018 
1534.0306520131     37.59065 
1549.3709585332      46.1279 
1564.8646681186     54.34955 
1580.5133147997      74.8714 
1596.3184479477      87.0975 
1612.2816324272     110.8285 
1628.4044487515      146.536 
1644.688493239      176.253 
1661.1353781714 240.58786363636 
1677.7467319531      318.479 
1694.5241992726     364.1685 
1711.4694412654      479.833 
1728.584135678      693.613 
1745.8699770348      1077.56 
1763.3286768051      1475.12 
1780.9619635732     2996.675 
1798.7715832089     4018.715 
1816.759299041      4825.43 
1834.9268920314     5860.355 
1853.2761609517     8727.755 
1871.8089225613      11638.1 
1890.5270117869     15237.05 
1909.4322819047     17986.85 
1928.5266047238      17932.8 
1947.811870771 31645.290909091 
1967.2899894787 35678.576470588 
1986.9628893735 42334.866666667 
2006.8325182673     45137.35 
2026.9008434499     65676.45 
2047.1698518844      71948.5 
2067.6415504033     103798.4 
2088.3179659073     120883.5 
2109.2011455664     135150.5 
2130.293157022     138470.5 
2151.5960885923     159923.5 
2173.1120494782       178152 
2194.843169973 208908.33333333 
2216.7916016727     239951.5 
2238.9595176894       237381 
2261.3491128663       238564 
2283.962603995       288913 
2306.8022300349       309483 
2329.8702523353       200906 
2353.1689548586 260950.66666667 
2376.7006444072       170220 
2400.4676508513     229504.5 
2424.4723273598 445385.66666667 
2448.7170506334     495585.5 
2473.2042211397       404165 
2497.9362633511 463592.47826087 
2522.9156259846 389678.25925926 
2548.1447822445       510674 
2573.6262300669 542663.33333333 
2599.3624923676 461666.33333333 
2625.3561172913     839468.5 
2651.6096784642       985587 
2678.1257752488     969209.5 
2704.9070330013 892137.66666667 
2731.9561033313 790582.66666667 
2759.2756643647 953385.33333333 
2786.8684210083     265262.5 
2814.7371052184 1200433.3333333 
2842.8844762706 1091524.6666667 
2871.3133210333 1315496.6666667 
2900.0264542436      1551430 
2929.026718786      1536365 
2958.3169859739      1623620 
2987.9001558336      1677805 
3017.779157392      1752400 
3047.9569489659      1804405 
3078.4365184556      1793120 
3109.2208836401      1822655 
3140.3130924765      1886275 
3171.7162234013      1855160 
3203.4333856353      1969115 
3235.4677194916      2160590 
3267.8223966866      2356830 
3300.5006206534      2403250 
3333.50562686      2384620 
3366.8406831286      2277725 
3400.5090899598      2514410 
3434.5141808594      2600730 
3468.859322668      2641980 
3503.5479158947      2728860 
3538.5833950537      2826350 
3573.9692290042      2726950 
3609.7089212942      2863518 
3645.8060105072 3023976.6666667 
3682.2640706123      3230520 
3719.0867113184      3588545 
3756.2775784316      3988665 
3793.8403542159      4067390 
3831.778757758      4297435 
3870.0965453356      4051610 
3908.797510789      3741560 
3947.8854858969      3907120 
3987.3643407558      4686295 
4027.2379841634      4742855 
4067.510364005      4798855 
4108.1854676451      4760165 
4149.2673223215 4877226.6666667 
4190.7599955447      4793425 
4232.6675955002      4787610 
4274.9942714552      4339165 
4317.7442141697      4766375 
4360.9216563114      4920450 
4404.5308728746      5031375 
4448.5761816033 5118366.6666667 
4493.0619434193      5191415 
4537.9925628535      5208505 
4583.3724884821      5254490 
4629.2062133669 5294863.3333333 
4675.4982755006      5315470 
4722.2532582556      5334925 
4769.4757908381      5332540 
4817.1705487465      5294620 
4865.342254234 5153443.3333333 
4913.9956767763      5234480 
4963.1356335441      5227550 
5012.7669898795      5243415 
5062.8946597783 5249056.6666667 
5113.5236063761      5178570 
5164.6588424398      5070680 
5216.3054308642      5168840 
5268.4684851729      5142020 
5321.1531700246      5128640 
5374.3647017249      5106200 
5428.1083487421 5104793.3333333 
5482.3894322295 5107723.3333333 
5537.2133265518      5078960 
5592.5854598173      5059915 
5648.5113144155      5042810 
5704.9964275597 5017416.6666667 
5762.0463918353 4990336.6666667 
5819.6668557536 4952313.3333333 
5877.8635243112 4894373.3333333 
5936.6421595543      4880160 
5996.0085811498 4838936.6666667 
6055.9686669613      4800620 
6116.5283536309      4723600 
6177.6936371672 4710686.6666667 
6239.4705735389      4664340 
6301.8652792743 4628586.6666667 
6364.883932067 4588693.3333333 
6428.5327713877    4523232.5 
6492.8180991016 4487103.3333333 
6557.7462800926 4325703.3333333 
6623.3237428935 4414893.3333333 
6689.5569803225    4368792.5 
6756.4525501257      4318420 
6824.0170756269      4268895 
6892.2572463832      4219990 
6961.179818847      4169605 
7030.7916170355      4120780 
7101.0995332059      4068425 
7172.1105285379      4014580 
7243.8316338233    3970662.5 
7316.2699501615 3922863.3333333 
7389.4326496631    3869047.5 
7463.3269761598    3817892.5 
7537.9602459214      3765230 
7613.3398483806      3714660 
7689.4732468644    3667047.5 
7766.367979333    3617152.5 
7844.0316591264    3565532.5 
7922.4719757176      3510555 
8001.6966954748    3460347.5 
8081.7136624296    3410482.5 
8162.5307990539      3354160 
8244.1561070444    3309362.5 
8326.5976681148      3250725 
8409.863644796      3201292 
8493.9622812439      3093460 
8578.9019040564    3105507.5 
8664.6909230969      3017294 
8751.3378323279    3004682.5 
8838.8512106512      2953975 
8927.2397227577      2905512 
9016.5121199853      2861395 
9106.6772411851      2820048 
9197.744013597      2755025 
9289.721453733      2727160 
9382.6186682703      2673570 
9476.444854953      2616156 
9571.2093035025      2582325 
9666.9213965375      2539514 
9763.5906105029      2494002 
9861.226516608      2448074 
9959.838781774      2406302 
10059.437169592      2353790 
10160.031541288      2320745 
10261.631856701      2277720 
10364.248175268      2238540 
10467.89065702      2197685 
10572.56956359      2145290 
10678.295259226      2099100 
10785.078211819      2058260 
10892.928993937      2013790 
11001.858283876      1995070 
11111.876866715      1960235 
11222.995635382      1918210 
11335.225591736      1876655 
11448.577847653      1847540 
11563.06362613 1806613.3333333 
11678.694262391      1770065 
11795.481205015      1737215 
11913.436017065      1703510 
12032.570377236      1671540 
12152.896081008      1647670 
12274.425041818 1615236.6666667 
12397.169292236      1584240 
12521.140985159 1553896.6666667 
12646.35239501      1524825 
12772.81591896 1483593.3333333 
12900.54407815      1463810 
13029.549518932      1437150 
13159.845014121 1411266.6666667 
13291.443464262      1387035 
13424.357898905      1363410 
13558.601477894      1335270 
13694.187492673 1308526.6666667 
13831.129367599      1287280 
13969.440661275 1266273.3333333 
14109.135067888 1241606.6666667 
14250.226418567 1218156.6666667 
14392.728682753 1193676.6666667 
14536.65596958      1173132 
14682.022529276 1151553.3333333 
14828.842754569 1129053.3333333 
14977.131182115      1106160 
15126.902493936 1088853.3333333 
15278.171518875      1067040 
15430.953234064 1047023.3333333 
15585.262766404 1025633.3333333 
15741.115394068 1000819.3333333 
15898.526548009 990181.71428571 
16057.511813489       949155 
16218.086931624       945043 
16380.26780094       897866 
16544.07047895       892834 
16709.511183739     843167.5 
16876.606295577       830728 
17045.372358532     805152.5 
17215.826082118       761377 
17387.984342939       742310 
17561.864186368       720899 
17737.482828232       700077 
17914.857656514       673199 
18094.006233079     637442.5 
18274.94629541       622786 
18457.695758364       605272 
18642.272715948     577329.5 
18828.695443107     565732.5 
19016.982397539     545730.5 
19207.152221514       525685 
19399.223743729       499219 
19593.215981166     488399.5 
19789.148140978       471352 
19987.039622388       455010 
20186.910018612     438936.5 
20388.779118798       423956 
20592.666909986     409267.5 
20798.593579086       395362 
21006.579514877     382091.5 
21216.645310025     369290.5 
21428.811763126       357077 
21643.099880757       339265 
21859.530879564       328441 
22078.12618836     317916.5 
22298.907450244       307737 
22521.896524746     297868.5 
22747.115489993 286239.66666667 
22974.586644893     275144.5 
23204.332511342       266600 
23436.375836456       256468 
23670.73959482       246843 
23907.446990769     239423.5 
24146.521460676 230491.66666667 
24387.986675283       221958 
24631.866542036       213818 
24878.185207456       205948 
25126.967059531 198590.33333333 
25378.236730126     191852.5 
25632.019097427       184570 
25888.339288402       178581 
26147.222681286 170459.66666667 
26408.694908098 165198.33333333 
26672.781857179     158661.5 
26939.509675751 154313.66666667 
27208.904772509       148136 
27480.993820234 141568.66666667 
27755.803758436       137575 
28033.361796021       133092 
28313.695413981       127943 
28596.832368121       122433 
28882.800691802 118371.66666667 
29171.62869872       113911 
29463.344985707 109673.33333333 
29757.978435564       105622 
30055.55821992 101360.66666667 
30356.113802119 97975.866666667 
30659.67494014      94529.8 
30966.271689541 91141.166666667 
31275.934406437 87923.933333333 
31588.693750501      84852.6 
31904.580688006     82001.36 
32223.626494886      78626.7 
32545.862759835      75942.2 
32871.321387434     73100.05 
33200.034601308     70135.25 
33532.034947321      67813.4 
33867.355296794     65564.75 
34206.028849762     62749.85 
34548.08913826        60723 
34893.570029642      58782.4 
35242.505729939     56300.85 
35594.930787238     53948.85 
35950.880095111      51732.5 
36310.388896062      50113.9 
36673.492785022     48581.95 
37040.227712872      46617.3 
37410.629990001     44653.05 
37784.736289901      43009.1 
38162.5836528     41343.35 
38544.209489328     39750.85 
38929.651584221      38198.2 
39318.948100064      36780.8 
39712.137581064      35384.8 
40109.258956875        33932 
40510.351546444      32821.3 
40915.455061908     31624.35 
41324.609612527     30433.75 
41737.855708653      29378.2 
42155.234265739      28339.2 
42576.786608396      27336.9 
43002.55447448      26360.6 
43432.580019225      25383.9 
43866.905819417 24318.733333333 
44305.574877612      23274.2 
44748.630626388      22489.2 
45196.116932652     21739.15 
45648.078101978      20855.2 
46104.558882998      19963.7 
46565.604471828     19342.35 
47031.260516546      18609.9 
47501.573121712     17875.45 
47976.588852929      17309.2 
48456.354741458 16637.066666667 
48940.918288873      15994.8 
49430.327471761        15386 
49924.630746479      14803.2 
50423.877053944 14248.833333333 
50928.115824483     13699.35 
51437.396982728 13219.066666667 
51951.770952555        12738 
52471.288662081      12280.1 
52996.001548702      11758.4 
53525.961564189     11339.65 
54061.221179831 10946.766666667 
54601.833391629 10492.266666667 
55147.851725545        10129 
55699.330242801 9787.6266666667 
56256.323545229      9393.23 
56818.886780681 9014.5366666667 
57387.075648488      8660.85 
57960.946404973 8321.6566666667 
58540.555869022 7990.1166666667 
59125.961427713 7687.0566666667 
59717.22104199 7398.0466666667 
60314.39325241      7118.76 
60917.537184934      6852.45 
61526.712556783      6598.87 
62141.979682351      6356.14 
62763.399479174      6121.73 
63391.033473966       5904.4 
64024.943808706 5649.5271428571 
64665.193246793      5458.53 
65311.845179261     5267.895 
65964.963631053     5025.585 
66624.613267364       4852.5 
67290.859400038     4685.565 
67963.767994038     4478.045 
68643.405673978      4328.16 
69329.839730718      4185.09 
70023.138128025      4003.07 
70723.369509305      3830.84 
71430.603204399       3707.5 
72144.909236443     3589.355 
72866.358328807      3439.11 
73595.021912095     3296.515 
74330.972131216      3153.86 
75074.281852528      3032.85 
75825.024671053      2940.62 
76583.274917764      2852.19 
77349.107666942      2738.94 
78122.598743611      2631.81 
78903.824731047     2529.595 
79692.862978358      2432.28 
80489.791608141     2339.605 
81294.689524223      2250.89 
82107.636419465     2167.115 
82928.712783659      2086.83 
83757.999911496     2010.265 
84595.579910611 1919.5466666667 
85441.535709717     1833.595 
86295.951066814         1768 
87158.910577482     1705.295 
88030.499683257      1646.46 
88910.80468009     1589.425 
89799.912726891      1521.73 
90697.91185416     1457.335 
91604.890972701     1408.355 
92520.939882428      1350.07 
93446.149281253      1294.23 
94380.610774065     1252.315 
95324.416881806 1201.9466666667 
96277.661050624      1153.94 
97240.43766113 1108.4466666667 
98212.842037741      1065.04 
99194.970458119     1031.895 
100186.9201627      1007.86 
199060.83304441      66.0683 
399467.9878358      4.20642 
594753.39981818     0.833978 
793700.71765891     0.263882 
997811.18987739     0.107952 
1193529.3359837    0.0519678 
1399507.0114645    0.0279953 
