#  WAVELENGTH	        FLUX	
#  (ANGSTROM)	(ERG/CM2/S/A)	
############	############	
        90.9   4.7741E-17 
    92.72709  2.91098E-16 
95.53681355409  1.61878E-15 
97.457103506527  4.45944E-15 
99.415991287008  1.42836E-14 
101.41425271188  5.86532E-14 
103.45267919139   1.6277E-13 
105.53207804313  4.37967E-13 
107.6532728118  1.33536E-12 
109.81710359532  5.28183E-12 
113.14467165136  3.01073E-11 
117.73879903054   1.7026E-10 
120.10534889105  7.68635E-10 
123.7446610678   3.20952E-9 
126.23192875526   7.88889E-9 
127.49424804281   1.29479E-8 
130.05688242847   2.82665E-8 
131.35745125276   5.61751E-8 
132.67102576529   9.53676E-8 
135.33771338317   2.40641E-7 
139.43858143639   6.90119E-7 
142.24129692326   2.07602E-6 
146.55135046134   6.68046E-6 
150.99200293167   1.97279E-5 
154.02694219059   6.15213E-5 
158.69411256591  0.000155652 
161.88386422848  0.000343526 
165.13772989948  0.000886169 
170.14156825316   0.00233426 
171.84298393569   0.00456008 
175.2970279128   0.00924548 
178.82049817385    0.0182483 
180.60870315558    0.0244251 
186.0813274699    0.0559245 
189.82156215205     0.134527 
193.6369755513     0.221255 
197.52907875988     0.464861 
201.49941324296     0.796851 
203.51440737539      1.30128 
209.68109743327      2.91163 
216.03464436659      6.42317 
218.19499081026      10.3524 
222.58071012555      15.6043 
224.8065172268      24.9922 
229.32512822306      4143.04 
233.93456330034        23707 
238.63664802268      63560.2 
245.86757709442       153935 
250.80951539401       253386 
255.85078665343       181281 
258.40929451997       457939 
263.60332133982       656587 
266.23935455322       904774 
271.59076557974      1147990 
277.04973996789      1337360 
282.61843974125      1943160 
288.29907038004      2389930 
294.09388169468      2616720 
300.00516871675      2002970 
306.03527260795      3029490 
315.30844740325      7136050 
324.86260866801      9923550 
334.70627057326     14212300 
344.8482052779     19593100 
355.29745074603     24756800 
362.43892950602     32752600 
373.42119150899     40752600 
384.7362270329     53739900 
392.46942519626     68505600 
404.36164124913     85741200 
412.48931023824    104988000 
420.78034537403    122718000 
429.23803031605    142884000 
437.8657147254    176619000 
446.66681559138    210794000 
455.64481858477    243094000 
469.4513122327    288900000 
478.88728360858    336589000 
488.51291800911    385125000 
498.3320276611    449227000 
503.31534793771   2624380000 
508.34850141708   7566400000 
518.56630629557   7305430000 
528.98948905211   7242630000 
539.62217778206   6584250000 
545.01839955988   7117010000 
555.97326939103   7666380000 
567.14833210579   7765700000 
578.54801358112   7281300000 
584.33349371693   7703650000 
596.07859694064   7539630000 
608.05977673914   7661470000 
614.14037450653   8067450000 
626.48459603412   8102700000 
639.0769364144   8051680000 
645.46770577855   8167880000 
651.92238283633   8088010000 
658.44160666469   8199590000 
671.67628295866   8337890000 
678.39304578824   8064900000 
692.02874600859   8520850000 
698.94903346867   8319480000 
712.99790904139   8708100000 
720.12788813181   8742880000 
734.60245868325   8902490000 
741.94848327009   8886360000 
749.36796810279   8932080000 
764.43026426165   8960800000 
772.07456690427   9066620000 
779.79531257331   9239360000 
787.59326569905   9267090000 
803.4238903396   9290570000 
811.45812924299   9362310000 
819.57271053542   9499280000 
827.76843764078   9119120000 
844.40658323736   9573570000 
852.85064906973   9626130000 
861.37915556043   9719030000 
869.99294711603   9765350000 
878.69287658719   9818620000 
887.47980535306   9869920000 
896.3546034066   9841620000 
914.37133093507  11515700000 
923.51504424442  39906600000 
932.75019468686  58994400000 
942.07769663373  80574900000 
951.49847360007  86009600000 
961.01345833607  96939100000 
970.62359291943  67018000000 
980.32982884862  91543700000 
990.13312713711  86090200000 
1000.0344584085  88119200000 
1010.0348029926  86475400000 
1020.1351510225  65081600000 
1030.3365025327  82318200000 
1040.639867558  83599800000 
1051.0462662336  81816100000 
1061.556728896  78031500000 
1072.1722961849  77013700000 
1082.8940191468  72669100000 
1093.7229593382  74961300000 
1104.6601889316  71625800000 
1115.7067908209  67414900000 
1126.8638587291  68618600000 
1138.1324973164  66887900000 
1149.5138222896  65271400000 
1161.0089605125  64108500000 
1172.6190501176  56519600000 
1184.3452406188  60077800000 
1196.188693025  57323300000 
1208.1505799552  43294500000 
1220.2320857548  55712800000 
1232.4344066123  55350100000 
1244.7587506785  53525250000 
1257.2063381852  52433400000 
1269.7784015671  51421900000 
1282.4761855828  49462150000 
1295.3009474386  47857100000 
1308.253956913  47476300000 
1321.3364964821  46361100000 
1334.5498614469  44847800000 
1347.8953600614  43772700000 
1361.374313662  42848700000 
1374.9880567986  41586300000 
1388.7379373666  39327700000 
1402.6253167403  38718200000 
1416.6515699077  37698600000 
1430.8180856068 37124982352.941 
1445.1262664628 36092376923.077 
1459.5775291275  35223800000 
1474.1733044187  34268250000 
1488.9150374629  33258100000 
1503.8041878376 32396327272.727 
1518.8422297159  31371200000 
1534.0306520131  29689450000 
1549.3709585332  28672000000 
1564.8646681186  28502350000 
1580.5133147997  27772950000 
1596.3184479477  26578500000 
1612.2816324272  25844950000 
1628.4044487515  25042800000 
1644.688493239  24220800000 
1661.1353781714 23990445454.545 
1677.7467319531  23545400000 
1694.5241992726  22910650000 
1711.4694412654  21912000000 
1728.584135678  21472350000 
1745.8699770348  20848400000 
1763.3286768051  20411300000 
1780.9619635732  19751550000 
1798.7715832089  19112700000 
1816.759299041  18616900000 
1834.9268920314  18178050000 
1853.2761609517  17501000000 
1871.8089225613  16978300000 
1890.5270117869  16436650000 
1909.4322819047  15854200000 
1928.5266047238  15452600000 
1947.811870771 14911963636.364 
1967.2899894787 14536229411.765 
1986.9628893735 14060052380.952 
2006.8325182673  13674000000 
2026.9008434499  13248800000 
2047.1698518844  11009850000 
2067.6415504033  11173205000 
2088.3179659073  12037900000 
2109.2011455664  11778200000 
2130.293157022  11433150000 
2151.5960885923  11125850000 
2173.1120494782  10822400000 
2194.843169973 10457466666.667 
2216.7916016727  10130100000 
2238.9595176894   9773610000 
2261.3491128663   9563080000 
2283.962603995   9143470000 
2306.8022300349   8906130000 
2329.8702523353   8660285000 
2353.1689548586   8364440000 
2376.7006444072   8021530000 
2400.4676508513   7860290000 
2424.4723273598   7597490000 
2448.7170506334   7344465000 
2473.2042211397 7028403333.3333 
2497.9362633511 6786016086.9565 
2522.9156259846 6638012222.2222 
2548.1447822445   6433800000 
2573.6262300669 6229366666.6667 
2599.3624923676   6009200000 
2625.3561172913   5815720000 
2651.6096784642 5626346666.6667 
2678.1257752488   5454225000 
2704.9070330013 5289176666.6667 
2731.9561033313   5083840000 
2759.2756643647   4911300000 
2786.8684210083   4769400000 
2814.7371052184 4617993333.3333 
2842.8844762706 4467526666.6667 
2871.3133210333 4311386666.6667 
2900.0264542436   4185940000 
2929.026718786   4033350000 
2958.3169859739   3903900000 
2987.9001558336   3771525000 
3017.779157392   3644460000 
3047.9569489659   3524000000 
3078.4365184556   3406210000 
3109.2208836401   3296875000 
3140.3130924765   3155375000 
3171.7162234013   3036030000 
3203.4333856353   2947730000 
3235.4677194916   2862150000 
3267.8223966866   2772775000 
3300.5006206534   2659945000 
3333.50562686   2574520000 
3366.8406831286   2499325000 
3400.5090899598   2395695000 
3434.5141808594   2314510000 
3468.859322668   2250230000 
3503.5479158947   2166795000 
3538.5833950537   2086990000 
3573.9692290042   2020850000 
3609.7089212942   1956974000 
3645.8060105072 1842443333.3333 
3682.2640706123   1772285000 
3719.0867113184   1708595000 
3756.2775784316   1717490000 
3793.8403542159   1687725000 
3831.778757758   1748505000 
3870.0965453356   1524440000 
3908.797510789   1675900000 
3947.8854858969   1523070000 
3987.3643407558   1560965000 
4027.2379841634   1494285000 
4067.510364005   1439250000 
4108.1854676451   1333900000 
4149.2673223215 1347663333.3333 
4190.7599955447   1291195000 
4232.6675955002   1249805000 
4274.9942714552   1207100000 
4317.7442141697   1092910000 
4360.9216563114   1120455000 
4404.5308728746   1091355000 
4448.5761816033 1040486666.6667 
4493.0619434193   1006543500 
4537.9925628535    972027500 
4583.3724884821    943687000 
4629.2062133669 905937666.66667 
4675.4982755006    862530000 
4722.2532582556    845183500 
4769.4757908381    813170000 
4817.1705487465    769520500 
4865.342254234 728422666.66667 
4913.9956767763    720451000 
4963.1356335441 697297333.33333 
5012.7669898795    672575500 
5062.8946597783 649513333.33333 
5113.5236063761    626343000 
5164.6588424398    604261000 
5216.3054308642    583070500 
5268.4684851729 562866333.33333 
5321.1531700246 539728333.33333 
5374.3647017249    520099500 
5428.1083487421    503736000 
5482.3894322295 483567333.33333 
5537.2133265518 464387666.66667 
5592.5854598173    449117500 
5648.5113144155 434173333.33333 
5704.9964275597 413458666.66667 
5762.0463918353 397868666.66667 
5819.6668557536 380964333.33333 
5877.8635243112    370062000 
5936.6421595543 357738333.33333 
5996.0085811498    345019000 
6055.9686669613    332424000 
6116.5283536309    320388000 
6177.6936371672 308894333.33333 
6239.4705735389    297913000 
6301.8652792743 287414666.66667 
6364.883932067 277367666.66667 
6428.5327713877    266218000 
6492.8180991016 253932666.66667 
6557.7462800926 239274666.66667 
6623.3237428935 238123333.33333 
6689.5569803225    228968250 
6756.4525501257    220590000 
6824.0170756269    212146250 
6892.2572463832 204178333.33333 
6961.179818847    196555000 
7030.7916170355 188541333.33333 
7101.0995332059    182289750 
7172.1105285379 175666666.66667 
7243.8316338233    169111500 
7316.2699501615    163315000 
7389.4326496631    157540250 
7463.3269761598    151245250 
7537.9602459214    145220250 
7613.3398483806 140265333.33333 
7689.4732468644    135483750 
7766.367979333    130253000 
7844.0316591264    125361000 
7922.4719757176    120610750 
8001.6966954748    116054000 
8081.7136624296    111674250 
8162.5307990539    107315500 
8244.1561070444    103213750 
8326.5976681148     99432525 
8409.863644796     95380240 
8493.9622812439     91584200 
8578.9019040564     88201500 
8664.6909230969     84222020 
8751.3378323279     83166250 
8838.8512106512     78327325 
8927.2397227577     76562560 
9016.5121199853     74034425 
9106.6772411851     72385500 
9197.744013597     66942675 
9289.721453733     67141340 
9382.6186682703     64466880 
9476.444854953     59847800 
9571.2093035025     59585250 
9666.9213965375     57588440 
9763.5906105029     55380460 
9861.226516608     53248760 
9959.838781774     50715720 
10059.437169592     48395500 
10160.031541288     47616500 
10261.631856701     45792850 
10364.248175268     44170650 
10467.89065702     42562750 
10572.56956359 40641466.666667 
10678.295259226     38850400 
10785.078211819     37311400 
10892.928993937     34905000 
11001.858283876     34839350 
11111.876866715     33712900 
11222.995635382 32281666.666667 
11335.225591736     30928400 
11448.577847653     29897300 
11563.06362613     28658000 
11678.694262391     27496550 
11795.481205015     26604900 
11913.436017065 25484966.666667 
12032.570377236     24527650 
12152.896081008     23753700 
12274.425041818     22830200 
12397.169292236     21948200 
12521.140985159 21100833.333333 
12646.35239501     20310700 
12772.81591896     19089300 
12900.54407815     18653700 
13029.549518932     17995700 
13159.845014121 17341733.333333 
13291.443464262     16715200 
13424.357898905 16115266.666667 
13558.601477894 15436033.333333 
13694.187492673 14789366.666667 
13831.129367599     14275450 
13969.440661275 13785033.333333 
14109.135067888 13223233.333333 
14250.226418567     12689600 
14392.728682753 12182833.333333 
14536.65596958     11698900 
14682.022529276     11240300 
14828.842754569     10807500 
14977.131182115 10388433.333333 
15126.902493936 9996543.3333333 
15278.171518875 9614983.3333333 
15430.953234064 9250146.6666667 
15585.262766404 8901616.6666667 
15741.115394068      8568760 
15898.526548009      8250150 
16057.511813489      7862570 
16218.086931624      7672875 
16380.26780094      7285350 
16544.07047895      7168805 
16709.511183739      6735555 
16876.606295577      6603140 
17045.372358532      6366930 
17215.826082118      6002385 
17387.984342939      5816135 
17561.864186368      5631690 
17737.482828232      5447635 
17914.857656514      5212700 
18094.006233079      4904005 
18274.94629541      4780805 
18457.695758364      4629010 
18642.272715948      4405690 
18828.695443107      4300415 
19016.982397539      4120900 
19207.152221514      3957995 
19399.223743729      3732880 
19593.215981166      3652675 
19789.148140978      3509985 
19987.039622388      3374180 
20186.910018612      3244835 
20388.779118798      3119355 
20592.666909986      3004275 
20798.593579086      2892325 
21006.579514877      2782005 
21216.645310025      2683610 
21428.811763126      2584650 
21643.099880757 2439643.3333333 
21859.530879564      2361695 
22078.12618836      2278625 
22298.907450244      2199335 
22521.896524746      2123400 
22747.115489993      2033080 
22974.586644893      1947185 
23204.332511342      1882115 
23436.375836456 1804563.3333333 
23670.73959482      1730670 
23907.446990769      1674340 
24146.521460676 1607083.3333333 
24387.986675283      1542960 
24631.866542036 1481663.3333333 
24878.185207456      1424195 
25126.967059531 1369216.6666667 
25378.236730126      1318845 
25632.019097427 1266736.6666667 
25888.339288402      1219900 
26147.222681286 1157056.6666667 
26408.694908098 1123873.3333333 
26672.781857179      1073950 
26939.509675751 1044853.3333333 
27208.904772509       999815 
27480.993820234 949492.33333333 
27755.803758436       924145 
28033.361796021 892058.66666667 
28313.695413981       855222 
28596.832368121 811932.33333333 
28882.800691802 787339.66666667 
29171.62869872       755873 
29463.344985707 725982.33333333 
29757.978435564       697538 
30055.55821992 665672.33333333 
30356.113802119 641929.66666667 
30659.67494014 620180.66666667 
30966.271689541       596785 
31275.934406437       574510 
31588.693750501       553239 
31904.580688006     533612.2 
32223.626494886       510476 
32545.862759835       492046 
32871.321387434       469367 
33200.034601308       452841 
33532.034947321       437073 
33867.355296794       421956 
34206.028849762       402792 
34548.08913826       389092 
34893.570029642     376028.5 
35242.505729939     359416.5 
35594.930787238       343712 
35950.880095111       328856 
36310.388896062       318209 
36673.492785022     307940.5 
37040.227712872     293559.5 
37410.629990001       280814 
37784.736289901       270926 
38162.5836528     259917.5 
38544.209489328     249490.5 
38929.651584221       239135 
39318.948100064     230072.5 
39712.137581064       220734 
40109.258956875     210155.5 
40510.351546444       204271 
40915.455061908       196462 
41324.609612527       188221 
41737.855708653       181959 
42155.234265739       175259 
42576.786608396       168771 
43002.55447448       162708 
43432.580019225       156036 
43866.905819417       149733 
44305.574877612     143337.5 
44748.630626388       138368 
45196.116932652     133574.5 
45648.078101978 127871.33333333 
46104.558882998       121182 
46565.604471828     117226.5 
47031.260516546 113447.33333333 
47501.573121712       108782 
47976.588852929     105227.5 
48456.354741458     100993.9 
48940.918288873      96956.3 
49430.327471761 93132.333333333 
49924.630746479     89482.05 
50423.877053944 86020.266666667 
50928.115824483        81940 
51437.396982728 79546.133333333 
51951.770952555      76573.3 
52471.288662081 73720.766666667 
52996.001548702      70466.4 
53525.961564189      67884.9 
54061.221179831      65430.7 
54601.833391629 62624.266666667 
55147.851725545      60360.8 
55699.330242801 58273.366666667 
56256.323545229 55842.733333333 
56818.886780681 53485.466666667 
57387.075648488 51350.566666667 
57960.946404973 49279.266666667 
58540.555869022 46983.866666667 
59125.961427713 45305.033333333 
59717.22104199      43655.8 
60314.39325241 41958.466666667 
60917.537184934 40342.966666667 
61526.712556783 38804.233333333 
62141.979682351 37325.966666667 
62763.399479174      35812.8 
63391.033473966      34607.1 
64024.943808706 33071.457142857 
64665.193246793      31922.8 
65311.845179261     30774.75 
65964.963631053     29320.25 
66624.613267364      28282.9 
67290.859400038        27190 
67963.767994038      26042.2 
68643.405673978        25147 
69329.839730718     24293.65 
70023.138128025     23209.45 
70723.369509305      22184.7 
71430.603204399      21451.8 
72144.909236443     20751.35 
72866.358328807      19859.7 
73595.021912095     19006.45 
74330.972131216      17937.3 
75074.281852528     17445.95 
75825.024671053      16913.3 
76583.274917764     16392.45 
77349.107666942     15722.15 
78122.598743611      15095.2 
78903.824731047     14495.05 
79692.862978358      13924.3 
80489.791608141        13381 
81294.689524223      12852.3 
82107.636419465        12372 
82928.712783659      11903.4 
83757.999911496      11456.4 
84595.579910611 10927.966666667 
85441.535709717     10427.45 
86295.951066814    10029.785 
87158.910577482     9629.765 
88030.499683257     9340.545 
88910.80468009     9009.905 
89799.912726891 8617.7933333333 
90697.91185416     8245.145 
91604.890972701     7961.935 
92520.939882428      7625.57 
93446.149281253      7281.09 
94380.610774065      7061.94 
95324.416881806      6772.08 
96277.661050624     6495.905 
97240.43766113      6234.53 
98212.842037741      5985.28 
99194.970458119      5795.35 
100186.9201627      5657.32 
199060.83304441      353.929 
399467.9878358      21.7503 
594753.39981818      4.24323 
793700.71765891      1.33009 
997811.18987739     0.540796 
1193529.3359837     0.259235 
1399507.0114645     0.139221 
