#  WAVELENGTH	        FLUX	
#  (ANGSTROM)	(ERG/CM2/S/A)	
############	############	
446.66681559138  6.43588E-25 
455.64481858477  2.79913E-24 
469.4513122327  1.33737E-23 
478.88728360858  5.96194E-23 
488.51291800911  2.49292E-22 
498.3320276611  9.80237E-22 
503.31534793771  2.88305E-21 
508.34850141708   7.0236E-21 
518.56630629557  1.90873E-20 
528.98948905211  6.40803E-20 
539.62217778206  2.02008E-19 
545.01839955988  6.16181E-19 
555.97326939103  1.79115E-18 
567.14833210579  5.00162E-18 
578.54801358112  1.32987E-17 
584.33349371693  3.48581E-17 
596.07859694064  8.73385E-17 
608.05977673914  2.11834E-16 
614.14037450653  4.98129E-16 
626.48459603412   1.1375E-15 
639.0769364144  2.52702E-15 
645.46770577855  5.46702E-15 
651.92238283633  9.95155E-15 
658.44160666469  1.65924E-14 
671.67628295866   3.3759E-14 
678.39304578824  6.71454E-14 
692.02874600859   1.3071E-13 
698.94903346867  2.49198E-13 
712.99790904139  4.95413E-13 
720.12788813181  9.07025E-13 
734.60245868325  1.53956E-12 
741.94848327009  2.72666E-12 
749.36796810279  4.74904E-12 
764.43026426165  8.14005E-12 
772.07456690427  1.37395E-11 
779.79531257331  2.28511E-11 
787.59326569905  3.74612E-11 
803.4238903396     6.06E-11 
811.45812924299  9.67484E-11 
819.57271053542  1.52535E-10 
827.76843764078  2.37615E-10 
844.40658323736  3.65837E-10 
852.85064906973  5.56933E-10 
861.37915556043  8.38627E-10 
869.99294711603   1.24962E-9 
878.69287658719   1.84362E-9 
887.47980535306   2.69337E-9 
896.3546034066   3.89739E-9 
914.37133093507    4.0874E-5 
923.51504424442  0.000143696 
932.75019468686  0.000185662 
942.07769663373  0.000304631 
951.49847360007  0.000464456 
961.01345833607  0.000579847 
970.62359291943  0.000721223 
980.32982884862   0.00122448 
990.13312713711   0.00160628 
1000.0344584085   0.00221072 
1010.0348029926   0.00264575 
1020.1351510225   0.00388159 
1030.3365025327   0.00525974 
1040.639867558   0.00728571 
1051.0462662336   0.00952129 
1061.556728896    0.0122499 
1072.1722961849    0.0160912 
1082.8940191468    0.0208461 
1093.7229593382    0.0258861 
1104.6601889316   0.11593535 
1115.7067908209     0.200706 
1126.8638587291     0.233827 
1138.1324973164     0.242301 
1149.5138222896     0.218768 
1161.0089605125     0.219597 
1172.6190501176     0.189792 
1184.3452406188    0.6570165 
1196.188693025     0.102797 
1208.1505799552    0.0431695 
1220.2320857548     0.135283 
1232.4344066123     0.319891 
1244.7587506785     0.437896 
1257.2063381852     0.983316 
1269.7784015671      1.52261 
1282.4761855828      3.05943 
1295.3009474386      4.79743 
1308.253956913      6.93276 
1321.3364964821      9.38551 
1334.5498614469     14.49645 
1347.8953600614      20.6132 
1361.374313662       26.469 
1374.9880567986     37.28235 
1388.7379373666      51.3961 
1402.6253167403      69.0338 
1416.6515699077      90.2948 
1430.8180856068 112.47482352941 
1445.1262664628      147.401 
1459.5775291275      178.744 
1474.1733044187      230.864 
1488.9150374629      298.229 
1503.8041878376 373.74704545455 
1518.8422297159       414.52 
1534.0306520131      512.305 
1549.3709585332       616.55 
1564.8646681186     728.7775 
1580.5133147997     1041.657 
1596.3184479477      1256.83 
1612.2816324272      1424.15 
1628.4044487515      1688.03 
1644.688493239      1851.05 
1661.1353781714 2456.4104545455 
1677.7467319531      3653.15 
1694.5241992726     4911.425 
1711.4694412654     8732.625 
1728.584135678      12979.5 
1745.8699770348      16980.8 
1763.3286768051     17893.05 
1780.9619635732     24782.45 
1798.7715832089      28127.3 
1816.759299041      28744.9 
1834.9268920314      34379.6 
1853.2761609517     43700.75 
1871.8089225613      53429.3 
1890.5270117869     63260.55 
1909.4322819047      74488.7 
1928.5266047238     80044.15 
1947.811870771 110666.90909091 
1967.2899894787 122735.17647059 
1986.9628893735 130091.61904762 
2006.8325182673       132767 
2026.9008434499     168622.5 
2047.1698518844       174149 
2067.6415504033     227619.9 
2088.3179659073       231149 
2109.2011455664       252174 
2130.293157022       246107 
2151.5960885923       279125 
2173.1120494782       300118 
2194.843169973       346881 
2216.7916016727     380180.5 
2238.9595176894       376754 
2261.3491128663     400981.5 
2283.962603995       460756 
2306.8022300349       489116 
2329.8702523353     364670.5 
2353.1689548586       446377 
2376.7006444072     350713.5 
2400.4676508513       431463 
2424.4723273598 682678.33333333 
2448.7170506334       731399 
2473.2042211397       722477 
2497.9362633511 823404.39130435 
2522.9156259846 735943.92592593 
2548.1447822445       827622 
2573.6262300669 868566.66666667 
2599.3624923676       795647 
2625.3561172913      1186170 
2651.6096784642      1312030 
2678.1257752488      1326730 
2704.9070330013 1284116.6666667 
2731.9561033313      1180648 
2759.2756643647 1377963.3333333 
2786.8684210083       673010 
2814.7371052184 1663536.6666667 
2842.8844762706 1666183.3333333 
2871.3133210333 1779276.6666667 
2900.0264542436      2024440 
2929.026718786      2028420 
2958.3169859739      2137540 
2987.9001558336      2245565 
3017.779157392      2338940 
3047.9569489659      2412520 
3078.4365184556      2544520 
3109.2208836401      2539545 
3140.3130924765      2721265 
3171.7162234013      2635160 
3203.4333856353      2740880 
3235.4677194916      2862260 
3267.8223966866      3002740 
3300.5006206534      3126370 
3333.50562686      3106930 
3366.8406831286      3167785 
3400.5090899598      3360360 
3434.5141808594      3417090 
3468.859322668      3419595 
3503.5479158947      3591545 
3538.5833950537      3689335 
3573.9692290042      3674620 
3609.7089212942      3795602 
3645.8060105072      4013930 
3682.2640706123      5429665 
3719.0867113184      9925475 
3756.2775784316     11942250 
3793.8403542159     12636900 
3831.778757758     14132000 
3870.0965453356     11722600 
3908.797510789     12497350 
3947.8854858969     12134250 
3987.3643407558     14483500 
4027.2379841634     14468950 
4067.510364005     14175600 
4108.1854676451     13205050 
4149.2673223215 14210666.666667 
4190.7599955447     14012300 
4232.6675955002     13959300 
4274.9942714552     13547950 
4317.7442141697     12383700 
4360.9216563114     13645500 
4404.5308728746     13464300 
4448.5761816033 13451666.666667 
4493.0619434193     13342200 
4537.9925628535     13148950 
4583.3724884821     13211200 
4629.2062133669 13120133.333333 
4675.4982755006     12956300 
4722.2532582556     12948250 
4769.4757908381 12770366.666667 
4817.1705487465     12263500 
4865.342254234 11702266.666667 
4913.9956767763     12191300 
4963.1356335441 12079366.666667 
5012.7669898795     11975550 
5062.8946597783 11857533.333333 
5113.5236063761     11616500 
5164.6588424398 11305333.333333 
5216.3054308642     11298000 
5268.4684851729 11137733.333333 
5321.1531700246     11012900 
5374.3647017249     10878800 
5428.1083487421     10755300 
5482.3894322295 10631633.333333 
5537.2133265518 10487566.666667 
5592.5854598173     10357000 
5648.5113144155 10210233.333333 
5704.9964275597 10075166.666667 
5762.0463918353      9919660 
5819.6668557536 9761303.3333333 
5877.8635243112      9575830 
5936.6421595543 9456973.3333333 
5996.0085811498 9305156.6666667 
6055.9686669613      9158190 
6116.5283536309 8976056.6666667 
6177.6936371672 8867433.3333333 
6239.4705735389 8708533.3333333 
6301.8652792743      8583690 
6364.883932067 8446523.3333333 
6428.5327713877      8271820 
6492.8180991016 8007596.6666667 
6557.7462800926 7458876.6666667 
6623.3237428935      7892240 
6689.5569803225      7748540 
6756.4525501257 7606366.6666667 
6824.0170756269      7466300 
6892.2572463832 7330536.6666667 
6961.179818847    7194777.5 
7030.7916170355      7064500 
7101.0995332059    6930902.5 
7172.1105285379 6801773.3333333 
7243.8316338233      6680380 
7316.2699501615      6559360 
7389.4326496631    6437587.5 
7463.3269761598    6303992.5 
7537.9602459214      6178520 
7613.3398483806      6065020 
7689.4732468644    5954042.5 
7766.367979333      5828175 
7844.0316591264    5713262.5 
7922.4719757176    5596397.5 
8001.6966954748      5483500 
8081.7136624296      5372385 
8162.5307990539      5261245 
8244.1561070444      5152045 
8326.5976681148    5028322.5 
8409.863644796      5023286 
8493.9622812439    4931652.5 
8578.9019040564    5058442.5 
8664.6909230969      4885538 
8751.3378323279    4957172.5 
8838.8512106512      4760200 
8927.2397227577      4694014 
9016.5121199853      4607535 
9106.6772411851      4549998 
9197.744013597    4333492.5 
9289.721453733      4354518 
9382.6186682703      4240066 
9476.444854953      4068104 
9571.2093035025      4047915 
9666.9213965375      3961678 
9763.5906105029      3871262 
9861.226516608      3777414 
9959.838781774 3680340.6666667 
10059.437169592      3558060 
10160.031541288      3525855 
10261.631856701      3441330 
10364.248175268      3364630 
10467.89065702      3282145 
10572.56956359 3183043.3333333 
10678.295259226      3094535 
10785.078211819      3025510 
10892.928993937      2896590 
11001.858283876      2898015 
11111.876866715      2832915 
11222.995635382 2752446.6666667 
11335.225591736      2677820 
11448.577847653      2621365 
11563.06362613 2545703.3333333 
11678.694262391      2474590 
11795.481205015      2419835 
11913.436017065      2359770 
12032.570377236      2299340 
12152.896081008      2252360 
12274.425041818 2192973.3333333 
12397.169292236      2136355 
12521.140985159 2079923.3333333 
12646.35239501      2027555 
12772.81591896 1942583.3333333 
12900.54407815      1915630 
13029.549518932      1867165 
13159.845014121      1820090 
13291.443464262      1774710 
13424.357898905 1730573.3333333 
13558.601477894 1679166.6666667 
13694.187492673      1628310 
13831.129367599      1589690 
13969.440661275      1550920 
14109.135067888 1505636.6666667 
14250.226418567 1461996.6666667 
14392.728682753 1416253.3333333 
14536.65596958      1379138 
14682.022529276 1339753.3333333 
14828.842754569 1299733.3333333 
14977.131182115      1257680 
15126.902493936 1229613.3333333 
15278.171518875 1195176.6666667 
15430.953234064 1175033.3333333 
15585.262766404      1148080 
15741.115394068 1119936.6666667 
15898.526548009 1108745.7142857 
16057.511813489      1046790 
16218.086931624      1045505 
16380.26780094       985475 
16544.07047895       984397 
16709.511183739       928310 
16876.606295577       915422 
17045.372358532       887585 
17215.826082118     838150.5 
17387.984342939       817834 
17561.864186368       794003 
17737.482828232       771219 
17914.857656514       741694 
18094.006233079       702003 
18274.94629541     686470.5 
18457.695758364       666975 
18642.272715948     635170.5 
18828.695443107     623761.5 
19016.982397539     601692.5 
19207.152221514     579798.5 
19399.223743729       550506 
19593.215981166     538984.5 
19789.148140978       520086 
19987.039622388     501933.5 
20186.910018612     484472.5 
20388.779118798       467862 
20592.666909986     451856.5 
20798.593579086     436599.5 
21006.579514877       421893 
21216.645310025       407815 
21428.811763126     394486.5 
21643.099880757 374750.33333333 
21859.530879564     363164.5 
22078.12618836     351466.5 
22298.907450244       340360 
22521.896524746     329515.5 
22747.115489993 316841.66666667 
22974.586644893     304734.5 
23204.332511342     295364.5 
23436.375836456 284053.66666667 
23670.73959482     273430.5 
23907.446990769       264952 
24146.521460676 255347.66666667 
24387.986675283     246223.5 
24631.866542036 237879.33333333 
24878.185207456     228678.5 
25126.967059531 221250.33333333 
25378.236730126     215064.5 
25632.019097427 206248.33333333 
25888.339288402       200748 
26147.222681286 190290.66666667 
26408.694908098       185932 
26672.781857179     177382.5 
26939.509675751 173637.33333333 
27208.904772509       166711 
27480.993820234       158756 
27755.803758436       154877 
28033.361796021       149856 
28313.695413981 144083.66666667 
28596.832368121 137453.33333333 
28882.800691802 133347.66666667 
29171.62869872       128360 
29463.344985707       123601 
29757.978435564 119058.33333333 
30055.55821992 113993.33333333 
30356.113802119 110420.66666667 
30659.67494014 106616.66666667 
30966.271689541 102823.33333333 
31275.934406437 99213.766666667 
31588.693750501      95760.4 
31904.580688006     92559.18 
32223.626494886     88772.75 
32545.862759835      85750.8 
32871.321387434     82185.55 
33200.034601308     79086.75 
33532.034947321      76468.1 
33867.355296794     73976.65 
34206.028849762      70815.9 
34548.08913826      68557.4 
34893.570029642      66372.7 
35242.505729939      63571.9 
35594.930787238      60992.9 
35950.880095111     58489.35 
36310.388896062      56535.8 
36673.492785022      54941.2 
37040.227712872     52845.15 
37410.629990001      50467.5 
37784.736289901      48764.1 
38162.5836528     46969.25 
38544.209489328      45212.6 
38929.651584221     43283.45 
39318.948100064     41846.25 
39712.137581064     40236.65 
40109.258956875      38392.6 
40510.351546444     37355.65 
40915.455061908     35995.65 
41324.609612527      34528.3 
41737.855708653     33449.95 
42155.234265739      32266.4 
42576.786608396     31131.35 
43002.55447448      30045.8 
43432.580019225      28874.3 
43866.905819417      27770.9 
44305.574877612      26611.3 
44748.630626388      25706.9 
45196.116932652      24851.9 
45648.078101978      23845.8 
46104.558882998     22752.45 
46565.604471828     22024.45 
47031.260516546 21268.433333333 
47501.573121712      20421.3 
47976.588852929     19786.15 
48456.354741458 19011.433333333 
48940.918288873     18279.65 
49430.327471761 17586.466666667 
49924.630746479      16911.3 
50423.877053944 16284.066666667 
50928.115824483      15622.8 
51437.396982728      15100.9 
51951.770952555     14570.65 
52471.288662081 14023.166666667 
52996.001548702 13446.633333333 
53525.961564189     12933.15 
54061.221179831 12516.833333333 
54601.833391629        11997 
55147.851725545      11546.3 
55699.330242801 11189.566666667 
56256.323545229 10737.766666667 
56818.886780681      10283.6 
57387.075648488 9900.1333333333 
57960.946404973 9514.7066666667 
58540.555869022 9122.4366666667 
59125.961427713 8773.1166666667 
59717.22104199 8463.3433333333 
60314.39325241      8143.87 
60917.537184934      7839.17 
61526.712556783 7548.8733333333 
62141.979682351 7271.4266666667 
62763.399479174 6987.2333333333 
63391.033473966 6753.4233333333 
64024.943808706 6462.3871428571 
64665.193246793       6242.4 
65311.845179261      6025.17 
65964.963631053     5747.655 
66624.613267364       5551.5 
67290.859400038      5350.71 
67963.767994038     5120.725 
68643.405673978      4951.61 
69329.839730718     4784.925 
70023.138128025      4579.73 
70723.369509305     4379.205 
71430.603204399      4241.55 
72144.909236443     4102.555 
72866.358328807     3934.495 
73595.021912095     3771.345 
74330.972131216      3588.26 
75074.281852528      3469.75 
75825.024671053      3364.24 
76583.274917764      3263.15 
77349.107666942      3129.67 
78122.598743611      3011.03 
78903.824731047      2894.11 
79692.862978358       2782.8 
80489.791608141      2676.75 
81294.689524223      2571.74 
82107.636419465     2479.425 
82928.712783659     2387.585 
83757.999911496      2299.87 
84595.579910611      2196.05 
85441.535709717      2097.56 
86295.951066814      2019.78 
87158.910577482     1948.165 
88030.499683257     1883.175 
88910.80468009     1818.435 
89799.912726891      1740.52 
90697.91185416     1667.215 
91604.890972701      1611.17 
92520.939882428      1543.97 
93446.149281253     1478.495 
94380.610774065      1432.49 
95324.416881806      1374.44 
96277.661050624      1320.03 
97240.43766113      1267.98 
98212.842037741     1217.295 
99194.970458119      1180.37 
100186.9201627      1152.81 
199060.83304441      75.3178 
399467.9878358      4.76847 
594753.39981818     0.941648 
793700.71765891     0.297081 
997811.18987739     0.121254 
1193529.3359837    0.0582623 
1399507.0114645    0.0313397 
