#  WAVELENGTH	        FLUX	
#  (ANGSTROM)	(ERG/CM2/S/A)	
############	############	
614.14037450653  3.75721E-25 
626.48459603412  1.15829E-24 
639.0769364144  3.44189E-24 
645.46770577855  9.87079E-24 
651.92238283633  2.23734E-23 
658.44160666469  4.50006E-23 
671.67628295866  1.18892E-22 
678.39304578824  3.04739E-22 
692.02874600859  7.58844E-22 
698.94903346867  1.83808E-21 
712.99790904139  4.71771E-21 
720.12788813181  1.08235E-20 
734.60245868325  2.23887E-20 
741.94848327009  4.91207E-20 
749.36796810279  1.05387E-19 
764.43026426165  2.21297E-19 
772.07456690427  4.55226E-19 
779.79531257331  9.18066E-19 
787.59326569905  1.81634E-18 
803.4238903396   3.5291E-18 
811.45812924299  6.73631E-18 
819.57271053542  1.26443E-17 
827.76843764078   2.3353E-17 
844.40658323736  4.24335E-17 
852.85064906973  7.58226E-17 
861.37915556043  1.33457E-16 
869.99294711603  2.31547E-16 
878.69287658719  3.95765E-16 
887.47980535306  6.68921E-16 
896.3546034066   1.1118E-15 
914.37133093507  1.20485E-11 
923.51504424442  6.58071E-11 
932.75019468686  9.44556E-11 
942.07769663373  1.40454E-10 
951.49847360007   1.4514E-10 
961.01345833607  3.35096E-10 
970.62359291943  2.47698E-10 
980.32982884862    6.759E-10 
990.13312713711   1.16647E-9 
1000.0344584085   1.22054E-9 
1010.0348029926   1.66007E-9 
1020.1351510225   2.19543E-9 
1030.3365025327   4.51769E-9 
1040.639867558   7.15011E-9 
1051.0462662336   8.56474E-9 
1061.556728896   1.90523E-8 
1072.1722961849   2.51917E-8 
1082.8940191468   5.35163E-8 
1093.7229593382   8.28443E-8 
1104.6601889316 1.2030545E-7 
1115.7067908209   2.92285E-7 
1126.8638587291   4.98906E-7 
1138.1324973164   7.40976E-7 
1149.5138222896   9.97583E-7 
1161.0089605125    1.0779E-6 
1172.6190501176     1.742E-6 
1184.3452406188  1.724575E-6 
1196.188693025   1.62235E-6 
1208.1505799552   1.03883E-6 
1220.2320857548   2.86999E-6 
1232.4344066123   5.97888E-6 
1244.7587506785   1.63916E-5 
1257.2063381852   3.69215E-5 
1269.7784015671   5.49166E-5 
1282.4761855828 0.0001068921 
1295.3009474386  0.000228159 
1308.253956913  0.000281977 
1321.3364964821  0.000379666 
1334.5498614469 0.0005351295 
1347.8953600614  0.000801279 
1361.374313662  0.000982738 
1374.9880567986  0.001226205 
1388.7379373666   0.00165837 
1402.6253167403   0.00249868 
1416.6515699077   0.00316671 
1430.8180856068 0.0050678641176471 
1445.1262664628 0.0060791015384615 
1459.5775291275   0.00801267 
1474.1733044187  0.010003285 
1488.9150374629    0.0160989 
1503.8041878376 0.019161909090909 
1518.8422297159    0.0264305 
1534.0306520131   0.05147845 
1549.3709585332    0.0726343 
1564.8646681186    0.0911723 
1580.5133147997     0.136074 
1596.3184479477     0.165345 
1612.2816324272     0.270134 
1628.4044487515     0.440173 
1644.688493239     0.710624 
1661.1353781714     1.246215 
1677.7467319531      2.20076 
1694.5241992726      3.11506 
1711.4694412654     4.190905 
1728.584135678       6.6425 
1745.8699770348      9.24608 
1763.3286768051     10.06837 
1780.9619635732     15.49995 
1798.7715832089     20.04435 
1816.759299041      23.0045 
1834.9268920314     25.53585 
1853.2761609517      34.0389 
1871.8089225613      45.2364 
1890.5270117869     64.21775 
1909.4322819047     86.81015 
1928.5266047238     86.14795 
1947.811870771 147.68518181818 
1967.2899894787      170.746 
1986.9628893735 202.04152380952 
2006.8325182673      210.736 
2026.9008434499     324.1895 
2047.1698518844      381.646 
2067.6415504033    456.16025 
2088.3179659073      789.168 
2109.2011455664      1443.83 
2130.293157022     1871.965 
2151.5960885923      1619.78 
2173.1120494782      1889.43 
2194.843169973 2423.7866666667 
2216.7916016727      4808.76 
2238.9595176894     4797.505 
2261.3491128663     2521.115 
2283.962603995 3945.5266666667 
2306.8022300349     5314.335 
2329.8702523353      6642.86 
2353.1689548586      6979.39 
2376.7006444072     6489.385 
2400.4676508513      8494.89 
2424.4723273598      15106.7 
2448.7170506334        14275 
2473.2042211397       5544.7 
2497.9362633511 5467.5339130435 
2522.9156259846 7692.6274074074 
2548.1447822445     20408.35 
2573.6262300669 27348.666666667 
2599.3624923676      23840.1 
2625.3561172913      46539.2 
2651.6096784642      62543.2 
2678.1257752488     56365.35 
2704.9070330013 40037.566666667 
2731.9561033313 33332.833333333 
2759.2756643647      44209.6 
2786.8684210083     16797.55 
2814.7371052184 27424.566666667 
2842.8844762706 11740.856666667 
2871.3133210333 41355.533333333 
2900.0264542436      81106.5 
2929.026718786     82592.65 
2958.3169859739      71763.7 
2987.9001558336      73592.6 
3017.779157392      85281.4 
3047.9569489659      90343.2 
3078.4365184556      71652.2 
3109.2208836401       100209 
3140.3130924765       123723 
3171.7162234013       135412 
3203.4333856353     159890.5 
3235.4677194916       222172 
3267.8223966866       272074 
3300.5006206534       208241 
3333.50562686       185826 
3366.8406831286       130047 
3400.5090899598     206698.5 
3434.5141808594       217059 
3468.859322668     276239.5 
3503.5479158947     351770.5 
3538.5833950537       371514 
3573.9692290042       296693 
3609.7089212942       389480 
3645.8060105072 486295.33333333 
3682.2640706123       435261 
3719.0867113184       264369 
3756.2775784316       497969 
3793.8403542159     393656.5 
3831.778757758     419099.5 
3870.0965453356       408446 
3908.797510789       374177 
3947.8854858969       436555 
3987.3643407558       740904 
4027.2379841634     724075.5 
4067.510364005       765009 
4108.1854676451     720396.5 
4149.2673223215 711505.33333333 
4190.7599955447       686619 
4232.6675955002     703053.5 
4274.9942714552       617970 
4317.7442141697       861497 
4360.9216563114       839762 
4404.5308728746       972230 
4448.5761816033 1091323.3333333 
4493.0619434193      1153830 
4537.9925628535      1194620 
4583.3724884821      1217245 
4629.2062133669 1259546.6666667 
4675.4982755006      1281850 
4722.2532582556      1291245 
4769.4757908381 1297616.6666667 
4817.1705487465      1331445 
4865.342254234 1335886.6666667 
4913.9956767763      1328935 
4963.1356335441      1316730 
5012.7669898795      1282195 
5062.8946597783 1237986.6666667 
5113.5236063761      1163295 
5164.6588424398 1135596.6666667 
5216.3054308642      1461255 
5268.4684851729 1469006.6666667 
5321.1531700246 1485453.3333333 
5374.3647017249      1500090 
5428.1083487421      1512980 
5482.3894322295 1565546.6666667 
5537.2133265518      1579600 
5592.5854598173      1599390 
5648.5113144155 1625456.6666667 
5704.9964275597      1634230 
5762.0463918353      1648680 
5819.6668557536 1656293.3333333 
5877.8635243112 1594646.6666667 
5936.6421595543      1671820 
5996.0085811498      1677150 
6055.9686669613      1679600 
6116.5283536309 1659176.6666667 
6177.6936371672 1681493.3333333 
6239.4705735389      1681160 
6301.8652792743 1689606.6666667 
6364.883932067      1691420 
6428.5327713877    1679592.5 
6492.8180991016 1697486.6666667 
6557.7462800926 1684613.3333333 
6623.3237428935 1697156.6666667 
6689.5569803225      1697485 
6756.4525501257 1695976.6666667 
6824.0170756269      1692910 
6892.2572463832 1688653.3333333 
6961.179818847      1684480 
7030.7916170355      1679820 
7101.0995332059    1671432.5 
7172.1105285379 1663976.6666667 
7243.8316338233      1661585 
7316.2699501615 1653546.6666667 
7389.4326496631      1645530 
7463.3269761598      1637570 
7537.9602459214    1630042.5 
7613.3398483806 1616836.6666667 
7689.4732468644    1609812.5 
7766.367979333    1602972.5 
7844.0316591264    1592107.5 
7922.4719757176      1579030 
8001.6966954748    1567882.5 
8081.7136624296      1557505 
8162.5307990539    1540152.5 
8244.1561070444      1533505 
8326.5976681148    1510052.5 
8409.863644796      1499790 
8493.9622812439    1450552.5 
8578.9019040564      1477225 
8664.6909230969      1439030 
8751.3378323279    1441607.5 
8838.8512106512      1435475 
8927.2397227577      1418878 
9016.5121199853    1404962.5 
9106.6772411851      1390064 
9197.744013597      1373885 
9289.721453733      1359278 
9382.6186682703      1342504 
9476.444854953      1326112 
9571.2093035025      1308970 
9666.9213965375      1293442 
9763.5906105029      1278800 
9861.226516608      1263476 
9959.838781774 1248643.3333333 
10059.437169592      1232135 
10160.031541288      1215735 
10261.631856701      1199185 
10364.248175268      1183455 
10467.89065702      1167940 
10572.56956359 1147803.3333333 
10678.295259226      1128600 
10785.078211819      1111560 
10892.928993937      1097725 
11001.858283876      1082695 
11111.876866715      1068210 
11222.995635382 1050323.3333333 
11335.225591736      1030675 
11448.577847653      1020145 
11563.06362613 999908.33333333 
11678.694262391       985646 
11795.481205015       967163 
11913.436017065 953850.66666667 
12032.570377236     940285.5 
12152.896081008       929863 
12274.425041818       914623 
12397.169292236     900086.5 
12521.140985159       885670 
12646.35239501       871678 
12772.81591896 857623.33333333 
12900.54407815       841857 
13029.549518932     828013.5 
13159.845014121 816059.66666667 
13291.443464262       803333 
13424.357898905       791560 
13558.601477894 777871.33333333 
13694.187492673       765782 
13831.129367599     752573.5 
13969.440661275 742558.66666667 
14109.135067888 730440.33333333 
14250.226418567       718995 
14392.728682753       707997 
14536.65596958 696324.93333333 
14682.022529276 686894.66666667 
14828.842754569 676167.66666667 
14977.131182115 662667.33333333 
15126.902493936 659792.33333333 
15278.171518875 650923.33333333 
15430.953234064 643062.66666667 
15585.262766404 634566.33333333 
15741.115394068 622819.66666667 
15898.526548009       616406 
16057.511813489       606762 
16218.086931624     594854.5 
16380.26780094       581184 
16544.07047895       566720 
16709.511183739     545587.5 
16876.606295577       531889 
17045.372358532     515641.5 
17215.826082118     497865.5 
17387.984342939     480090.5 
17561.864186368       466942 
17737.482828232       454114 
17914.857656514       437988 
18094.006233079     422593.5 
18274.94629541     408056.5 
18457.695758364       396805 
18642.272715948       385722 
18828.695443107     374466.5 
19016.982397539     362972.5 
19207.152221514     350854.5 
19399.223743729       338719 
19593.215981166       327657 
19789.148140978       317269 
19987.039622388     307732.5 
20186.910018612       297864 
20388.779118798     288740.5 
20592.666909986     279603.5 
20798.593579086     271182.5 
21006.579514877       263104 
21216.645310025       255313 
21428.811763126     247842.5 
21643.099880757 238667.33333333 
21859.530879564       229984 
22078.12618836       223485 
22298.907450244       216947 
22521.896524746     210631.5 
22747.115489993 202497.33333333 
22974.586644893     194964.5 
23204.332511342     188125.5 
23436.375836456 181714.66666667 
23670.73959482     175190.5 
23907.446990769       170318 
24146.521460676       163555 
24387.986675283     157073.5 
24631.866542036       150901 
24878.185207456     145641.5 
25126.967059531 139910.33333333 
25378.236730126     135790.5 
25632.019097427       131402 
25888.339288402       127784 
26147.222681286 124231.33333333 
26408.694908098 119478.33333333 
26672.781857179     115307.5 
26939.509675751 111173.66666667 
27208.904772509 106870.33333333 
27480.993820234       102864 
27755.803758436      99757.8 
28033.361796021      96065.2 
28313.695413981      92691.7 
28596.832368121 89485.966666667 
28882.800691802 86284.466666667 
29171.62869872      82629.5 
29463.344985707 80163.333333333 
29757.978435564 77071.866666667 
30055.55821992      74981.1 
30356.113802119 72156.633333333 
30659.67494014 69686.166666667 
30966.271689541 67816.366666667 
31275.934406437      65284.2 
31588.693750501 63424.266666667 
31904.580688006     61627.22 
32223.626494886      59223.4 
32545.862759835        57523 
32871.321387434      55655.1 
33200.034601308     53375.05 
33532.034947321        51987 
33867.355296794      50177.3 
34206.028849762     48229.85 
34548.08913826      46900.1 
34893.570029642     45441.05 
35242.505729939      43632.7 
35594.930787238     41834.65 
35950.880095111      40323.3 
36310.388896062        39128 
36673.492785022      38008.7 
37040.227712872      36500.2 
37410.629990001      35175.1 
37784.736289901     33855.25 
38162.5836528     32581.15 
38544.209489328     31382.25 
38929.651584221      30219.1 
39318.948100064      29156.4 
39712.137581064     28043.75 
40109.258956875      27049.4 
40510.351546444     26061.95 
40915.455061908      25153.4 
41324.609612527     24261.75 
41737.855708653      23419.5 
42155.234265739      22626.6 
42576.786608396     21765.75 
43002.55447448      20659.6 
43432.580019225      19667.5 
43866.905819417 18613.433333333 
44305.574877612      17673.1 
44748.630626388      17022.2 
45196.116932652     16440.95 
45648.078101978 15838.766666667 
46104.558882998     15297.95 
46565.604471828     14914.15 
47031.260516546 14411.133333333 
47501.573121712      13884.1 
47976.588852929     13450.35 
48456.354741458 12944.666666667 
48940.918288873     12480.15 
49430.327471761 12013.566666667 
49924.630746479     11551.35 
50423.877053944      11140.4 
50928.115824483     10765.65 
51437.396982728 10390.333333333 
51951.770952555    10032.725 
52471.288662081      9691.11 
52996.001548702 9318.2866666667 
53525.961564189     9014.815 
54061.221179831 8705.4033333333 
54601.833391629 8386.9133333333 
55147.851725545     8118.185 
55699.330242801 7862.9366666667 
56256.323545229 7567.0033333333 
56818.886780681      7276.72 
57387.075648488 7019.3833333333 
57960.946404973 6756.9633333333 
58540.555869022 6509.0333333333 
59125.961427713      6271.65 
59717.22104199 6049.6533333333 
60314.39325241 5825.7533333333 
60917.537184934      5618.88 
61526.712556783 5419.9766666667 
62141.979682351       5227.1 
62763.399479174      5041.85 
63391.033473966 4858.0366666667 
64024.943808706 4626.0028571429 
64665.193246793      4448.35 
65311.845179261     4281.905 
65964.963631053      4074.03 
66624.613267364      3933.64 
67290.859400038       3806.3 
67963.767994038     3633.435 
68643.405673978      3521.69 
69329.839730718      3409.42 
70023.138128025     3258.625 
70723.369509305      3127.21 
71430.603204399      3033.57 
72144.909236443      2929.13 
72866.358328807     2814.835 
73595.021912095     2699.385 
74330.972131216      2592.33 
75074.281852528     2484.555 
75825.024671053      2408.53 
76583.274917764     2340.865 
77349.107666942      2245.57 
78122.598743611      2159.35 
78903.824731047     2074.875 
79692.862978358     1994.855 
80489.791608141     1918.375 
81294.689524223     1848.065 
82107.636419465     1780.405 
82928.712783659      1713.78 
83757.999911496      1652.88 
84595.579910611 1579.6066666667 
85441.535709717     1512.755 
86295.951066814     1461.515 
87158.910577482     1408.435 
88030.499683257     1361.125 
88910.80468009     1316.785 
89799.912726891 1261.3633333333 
90697.91185416     1208.255 
91604.890972701     1168.575 
92520.939882428 1120.6433333333 
93446.149281253     1074.585 
94380.610774065     1038.475 
95324.416881806 998.17166666667 
96277.661050624     957.3045 
97240.43766113      920.179 
98212.842037741      881.558 
99194.970458119     855.4185 
100186.9201627      835.594 
199060.83304441      54.7937 
399467.9878358      3.45061 
594753.39981818     0.682019 
793700.71765891     0.215784 
997811.18987739    0.0883093 
1193529.3359837    0.0425262 
1399507.0114645    0.0229152 
