#  WAVELENGTH	        FLUX	
#  (ANGSTROM)	(ERG/CM2/S/A)	
############	############	
        90.9   7.21972E-8 
    92.72709   2.58097E-7 
95.53681355409   8.67051E-7 
97.457103506527   1.77683E-6 
99.415991287008   4.05472E-6 
101.41425271188   1.10539E-5 
103.45267919139   2.28358E-5 
105.53207804313    4.6148E-5 
107.6532728118  0.000102094 
109.81710359532  0.000272199 
113.14467165136  0.000941999 
117.73879903054   0.00324259 
120.10534889105    0.0094968 
123.7446610678    0.0262779 
126.23192875526    0.0498267 
127.49424804281    0.0708532 
130.05688242847      0.12335 
131.35745125276     0.200749 
132.67102576529      0.29211 
135.33771338317     0.562444 
139.43858143639       1.1843 
142.24129692326      2.57521 
146.55135046134      5.85824 
150.99200293167      12.5315 
154.02694219059      27.7961 
158.69411256591      53.1928 
161.88386422848      92.4053 
165.13772989948      178.699 
170.14156825316      350.346 
171.84298393569       557.11 
175.2970279128      908.965 
178.82049817385      1454.39 
180.60870315558      1778.51 
186.0813274699      3149.74 
189.82156215205      5758.08 
193.6369755513      8105.91 
197.52907875988      13494.8 
201.49941324296        19515 
203.51440737539      27281.5 
209.68109743327      47286.3 
216.03464436659      80983.8 
218.19499081026       112016 
222.58071012555       148051 
224.8065172268       203840 
229.32512822306      7619350 
233.93456330034     29768400 
238.63664802268     79859000 
245.86757709442    869188000 
250.80951539401   2960820000 
255.85078665343   1906150000 
258.40929451997   8868220000 
263.60332133982  16410600000 
266.23935455322  23108400000 
271.59076557974  29556800000 
277.04973996789  30804000000 
282.61843974125  40052900000 
288.29907038004  43729800000 
294.09388169468  30464000000 
300.00516871675   4728630000 
306.03527260795  15850900000 
315.30844740325  39254800000 
324.86260866801  45617000000 
334.70627057326  44969200000 
344.8482052779  46739700000 
355.29745074603  53629600000 
362.43892950602  58417900000 
373.42119150899  58929300000 
384.7362270329  53701800000 
392.46942519626  59431800000 
404.36164124913  61854700000 
412.48931023824  61913400000 
420.78034537403  59770200000 
429.23803031605  58347400000 
437.8657147254  60900700000 
446.66681559138  60691500000 
455.64481858477  58621100000 
469.4513122327  58385500000 
478.88728360858  59256700000 
488.51291800911  56799900000 
498.3320276611  58955400000 
503.31534793771  74818900000 
508.34850141708 109571000000 
518.56630629557 107108000000 
528.98948905211 104980000000 
539.62217778206  97349200000 
545.01839955988  96596100000 
555.97326939103 104059000000 
567.14833210579 103851000000 
578.54801358112 100194000000 
584.33349371693 101249000000 
596.07859694064  97618100000 
608.05977673914  94750600000 
614.14037450653  98573300000 
626.48459603412  96569700000 
639.0769364144  96840800000 
645.46770577855  94454400000 
651.92238283633  91354000000 
658.44160666469  92967400000 
671.67628295866  93350600000 
678.39304578824  89207700000 
692.02874600859  90792700000 
698.94903346867  86704200000 
712.99790904139  88947500000 
720.12788813181  88172300000 
734.60245868325  87309200000 
741.94848327009  85320300000 
749.36796810279  84066600000 
764.43026426165  82050500000 
772.07456690427  81935100000 
779.79531257331  80606700000 
787.59326569905  79843400000 
803.4238903396  78999800000 
811.45812924299  78218900000 
819.57271053542  77634900000 
827.76843764078  73798100000 
844.40658323736  75290800000 
852.85064906973  73967500000 
861.37915556043  73677000000 
869.99294711603  72799800000 
878.69287658719  71740900000 
887.47980535306  70678200000 
896.3546034066  69134200000 
914.37133093507  57065800000 
923.51504424442  99489700000 
932.75019468686 128159000000 
942.07769663373 157007000000 
951.49847360007 166517000000 
961.01345833607 184488000000 
970.62359291943 144878000000 
980.32982884862 175147000000 
990.13312713711 162161000000 
1000.0344584085 168029000000 
1010.0348029926 164347000000 
1020.1351510225 131971000000 
1030.3365025327 156544000000 
1040.639867558 154652000000 
1051.0462662336 151014000000 
1061.556728896 145534000000 
1072.1722961849 142363000000 
1082.8940191468 133766000000 
1093.7229593382 136949000000 
1104.6601889316 131300500000 
1115.7067908209 125054000000 
1126.8638587291 124346000000 
1138.1324973164 121471000000 
1149.5138222896 117792000000 
1161.0089605125 115068000000 
1172.6190501176 106403000000 
1184.3452406188 108394500000 
1196.188693025 104512000000 
1208.1505799552  84983700000 
1220.2320857548  99779300000 
1232.4344066123  97619300000 
1244.7587506785  94644600000 
1257.2063381852  92137600000 
1269.7784015671  90132600000 
1282.4761855828  87180200000 
1295.3009474386  84264200000 
1308.253956913  82545200000 
1321.3364964821  80645400000 
1334.5498614469  78228450000 
1347.8953600614  75589100000 
1361.374313662  73788200000 
1374.9880567986  71346550000 
1388.7379373666  68660600000 
1402.6253167403  66705600000 
1416.6515699077  64911400000 
1430.8180856068 63366582352.941 
1445.1262664628 61445769230.769 
1459.5775291275  59868600000 
1474.1733044187  58254450000 
1488.9150374629  56517500000 
1503.8041878376 54957322727.273 
1518.8422297159  53267400000 
1534.0306520131  50725650000 
1549.3709585332  48880900000 
1564.8646681186  48474950000 
1580.5133147997  46795950000 
1596.3184479477  45147200000 
1612.2816324272  43835350000 
1628.4044487515  41866600000 
1644.688493239  40469000000 
1661.1353781714  40186750000 
1677.7467319531  39218500000 
1694.5241992726  38151850000 
1711.4694412654  36494050000 
1728.584135678  35540700000 
1745.8699770348  34525600000 
1763.3286768051  33696700000 
1780.9619635732  32525100000 
1798.7715832089  31404900000 
1816.759299041  30584200000 
1834.9268920314  29817750000 
1853.2761609517  28793850000 
1871.8089225613  27824150000 
1890.5270117869  26927800000 
1909.4322819047  26009100000 
1928.5266047238  25189150000 
1947.811870771 24303336363.636 
1967.2899894787 23592676470.588 
1986.9628893735 22837933333.333 
2006.8325182673  22105200000 
2026.9008434499  21405000000 
2047.1698518844  16054850000 
2067.6415504033  16557665000 
2088.3179659073  19200500000 
2109.2011455664  18966200000 
2130.293157022  18382500000 
2151.5960885923  17921950000 
2173.1120494782  17451350000 
2194.843169973 16888433333.333 
2216.7916016727  16438150000 
2238.9595176894  15715500000 
2261.3491128663  15492850000 
2283.962603995 14759833333.333 
2306.8022300349  14394100000 
2329.8702523353  13990150000 
2353.1689548586 13497933333.333 
2376.7006444072  12835050000 
2400.4676508513  12661550000 
2424.4723273598  12229100000 
2448.7170506334  11810300000 
2473.2042211397  11340800000 
2497.9362633511 10774460869.565 
2522.9156259846 10646618518.519 
2548.1447822445  10312050000 
2573.6262300669   9974440000 
2599.3624923676   9592590000 
2625.3561172913   9283600000 
2651.6096784642   8984570000 
2678.1257752488   8700370000 
2704.9070330013 8427373333.3333 
2731.9561033313   8045620000 
2759.2756643647 7814043333.3333 
2786.8684210083   7576550000 
2814.7371052184 7343056666.6667 
2842.8844762706   7083220000 
2871.3133210333   6830280000 
2900.0264542436   6627840000 
2929.026718786   6391545000 
2958.3169859739   6171860000 
2987.9001558336   5958180000 
3017.779157392   5752570000 
3047.9569489659   5558410000 
3078.4365184556   5371950000 
3109.2208836401   5192825000 
3140.3130924765   4965775000 
3171.7162234013   4791280000 
3203.4333856353   4614915000 
3235.4677194916   4496860000 
3267.8223966866   4351850000 
3300.5006206534   4170530000 
3333.50562686   4037370000 
3366.8406831286   3913970000 
3400.5090899598   3754810000 
3434.5141808594   3638010000 
3468.859322668   3529845000 
3503.5479158947   3387145000 
3538.5833950537   3253770000 
3573.9692290042   3154300000 
3609.7089212942   3041296000 
3645.8060105072 2689013333.3333 
3682.2640706123   2614320000 
3719.0867113184   2586030000 
3756.2775784316   2585820000 
3793.8403542159   2526675000 
3831.778757758   2534430000 
3870.0965453356   2306280000 
3908.797510789   2415460000 
3947.8854858969   2248790000 
3987.3643407558   2255795000 
4027.2379841634   2160995000 
4067.510364005   2083595000 
4108.1854676451   1961880000 
4149.2673223215   1941680000 
4190.7599955447   1850345000 
4232.6675955002   1798560000 
4274.9942714552   1736905000 
4317.7442141697   1607155000 
4360.9216563114   1618710000 
4404.5308728746   1569690000 
4448.5761816033 1501236666.6667 
4493.0619434193   1444575000 
4537.9925628535   1388685000 
4583.3724884821   1354550000 
4629.2062133669 1300526666.6667 
4675.4982755006   1230080000 
4722.2532582556   1212040000 
4769.4757908381   1165780000 
4817.1705487465   1108940000 
4865.342254234 1056036666.6667 
4913.9956767763   1036370000 
4963.1356335441   1000174000 
5012.7669898795    964179000 
5062.8946597783 929751333.33333 
5113.5236063761    896381000 
5164.6588424398 864582666.66667 
5216.3054308642    834091500 
5268.4684851729    805010000 
5321.1531700246 771722666.66667 
5374.3647017249    739507500 
5428.1083487421 719959666.66667 
5482.3894322295 690977666.66667 
5537.2133265518 663420666.66667 
5592.5854598173    641505000 
5648.5113144155 618503666.66667 
5704.9964275597    564936000 
5762.0463918353 544318333.33333 
5819.6668557536 526236666.66667 
5877.8635243112 514672666.66667 
5936.6421595543    504465000 
5996.0085811498 491572666.66667 
6055.9686669613 474604333.33333 
6116.5283536309 457142666.66667 
6177.6936371672    440738000 
6239.4705735389 425331666.66667 
6301.8652792743 409699333.33333 
6364.883932067 395163666.66667 
6428.5327713877    379925500 
6492.8180991016 362065666.66667 
6557.7462800926 344584666.66667 
6623.3237428935 339895666.66667 
6689.5569803225    326076000 
6756.4525501257 314446333.33333 
6824.0170756269    301644500 
6892.2572463832 290933666.66667 
6961.179818847    280037500 
7030.7916170355 269159333.33333 
7101.0995332059    259202500 
7172.1105285379    249843000 
7243.8316338233    241018250 
7316.2699501615 232490666.66667 
7389.4326496631    224236000 
7463.3269761598    215234500 
7537.9602459214    206041750 
7613.3398483806 199538333.33333 
7689.4732468644    192711000 
7766.367979333    185254500 
7844.0316591264    178182250 
7922.4719757176    171419750 
8001.6966954748    164974250 
8081.7136624296    158826250 
8162.5307990539    150265750 
8244.1561070444    142818000 
8326.5976681148    137798750 
8409.863644796    132574200 
8493.9622812439    127878750 
8578.9019040564    123932250 
8664.6909230969    119543000 
8751.3378323279    116574000 
8838.8512106512    111629250 
8927.2397227577    108149400 
9016.5121199853    104327750 
9106.6772411851    101255580 
9197.744013597     95304625 
9289.721453733     93604140 
9382.6186682703     90201600 
9476.444854953     84882820 
9571.2093035025     83430825 
9666.9213965375     80540280 
9763.5906105029     77362640 
9861.226516608     74448640 
9959.838781774 71279446.666667 
10059.437169592     67861150 
10160.031541288     66571500 
10261.631856701     64067150 
10364.248175268     61637800 
10467.89065702     59494850 
10572.56956359 56823666.666667 
10678.295259226     54300050 
10785.078211819     52274500 
10892.928993937     49442350 
11001.858283876     48771900 
11111.876866715     47122150 
11222.995635382 45134366.666667 
11335.225591736     43237250 
11448.577847653     41791950 
11563.06362613     39905100 
11678.694262391     38434750 
11795.481205015     37186550 
11913.436017065 35670333.333333 
12032.570377236     34281300 
12152.896081008     33198850 
12274.425041818 31907133.333333 
12397.169292236     30673550 
12521.140985159 29500166.666667 
12646.35239501     28384600 
12772.81591896 26912533.333333 
12900.54407815 26097166.666667 
13029.549518932     25147450 
13159.845014121     24233000 
13291.443464262     23357200 
13424.357898905     22521800 
13558.601477894 21567933.333333 
13694.187492673 20664566.666667 
13831.129367599     19945450 
13969.440661275     19259700 
14109.135067888 18474566.666667 
14250.226418567 17728466.666667 
14392.728682753 17019733.333333 
14536.65596958 16347283.333333 
14682.022529276     15671600 
14828.842754569     15099800 
14977.131182115 14518133.333333 
15126.902493936     13967200 
15278.171518875 13438933.333333 
15430.953234064 12934866.666667 
15585.262766404     12452500 
15741.115394068     11995800 
15898.526548009 11522371.428571 
16057.511813489     11049500 
16218.086931624     10695550 
16380.26780094     10254500 
16544.07047895      9971255 
16709.511183739      9445565 
16876.606295577      9185160 
17045.372358532      8865705 
17215.826082118      8412555 
17387.984342939      8094800 
17561.864186368      7833610 
17737.482828232      7577645 
17914.857656514      7251455 
18094.006233079      6874660 
18274.94629541      6650360 
18457.695758364      6440920 
18642.272715948      6143305 
18828.695443107      5983825 
19016.982397539      5738210 
19207.152221514      5508165 
19399.223743729      5233835 
19593.215981166      5082085 
19789.148140978      4883635 
19987.039622388      4694705 
20186.910018612      4514900 
20388.779118798      4342595 
20592.666909986      4180305 
20798.593579086      4024640 
21006.579514877      3874545 
21216.645310025      3734425 
21428.811763126      3598245 
21643.099880757 3411436.6666667 
21859.530879564      3286700 
22078.12618836      3171295 
22298.907450244      3060895 
22521.896524746      2955245 
22747.115489993 2831576.6666667 
22974.586644893      2712975 
23204.332511342      2622150 
23436.375836456 2513976.6666667 
23670.73959482      2410940 
23907.446990769      2332430 
24146.521460676      2238880 
24387.986675283      2149665 
24631.866542036 2064793.3333333 
24878.185207456      1984430 
25126.967059531      1907850 
25378.236730126      1834775 
25632.019097427      1764520 
25888.339288402      1698205 
26147.222681286 1619123.3333333 
26408.694908098      1563440 
26672.781857179      1502115 
26939.509675751 1452433.3333333 
27208.904772509 1390283.3333333 
27480.993820234      1326630 
27755.803758436      1284710 
28033.361796021 1240133.3333333 
28313.695413981      1189040 
28596.832368121 1134966.6666667 
28882.800691802      1094610 
29171.62869872 1050883.3333333 
29463.344985707 1009326.6666667 
29757.978435564       969789 
30055.55821992 928452.33333333 
30356.113802119 894257.33333333 
30659.67494014       862248 
30966.271689541 829748.66666667 
31275.934406437       798757 
31588.693750501 769194.66666667 
31904.580688006     741897.6 
32223.626494886     709700.5 
32545.862759835       684132 
32871.321387434       655357 
33200.034601308     629234.5 
33532.034947321       607212 
33867.355296794       586265 
34206.028849762     559607.5 
34548.08913826       540586 
34893.570029642       522439 
35242.505729939     499335.5 
35594.930787238       477508 
35950.880095111       456864 
36310.388896062       442065 
36673.492785022       427942 
37040.227712872       408584 
37410.629990001     390872.5 
37784.736289901       376631 
38162.5836528       361250 
38544.209489328     346632.5 
38929.651584221       332666 
39318.948100064     319577.5 
39712.137581064       306920 
40109.258956875     292743.5 
40510.351546444       283741 
40915.455061908     272898.5 
41324.609612527     262104.5 
41737.855708653     252786.5 
42155.234265739       243408 
42576.786608396     234437.5 
43002.55447448     225926.5 
43432.580019225       217215 
43866.905819417       208006 
44305.574877612       198972 
44748.630626388       192046 
45196.116932652       185387 
45648.078101978 177462.66666667 
46104.558882998     168390.5 
46565.604471828     163256.5 
47031.260516546       157410 
47501.573121712     150927.5 
47976.588852929       145989 
48456.354741458 140103.66666667 
48940.918288873     134493.5 
49430.327471761 129179.66666667 
49924.630746479       124107 
50423.877053944 119296.66666667 
50928.115824483       113920 
51437.396982728       110323 
51951.770952555     106169.5 
52471.288662081 102206.33333333 
52996.001548702      97684.3 
53525.961564189      94099.6 
54061.221179831      90688.7 
54601.833391629      86790.1 
55147.851725545     83695.15 
55699.330242801      80746.2 
56256.323545229 77371.033333333 
56818.886780681 74153.766666667 
57387.075648488 71132.166666667 
57960.946404973 68251.966666667 
58540.555869022      65109.5 
59125.961427713        62833 
59717.22104199 60439.766666667 
60314.39325241      58083.7 
60917.537184934      55841.6 
61526.712556783        53706 
62141.979682351 51667.633333333 
62763.399479174 49633.433333333 
63391.033473966 47881.566666667 
64024.943808706 45751.185714286 
64665.193246793      44157.3 
65311.845179261      42565.9 
65964.963631053     40547.85 
66624.613267364      39108.8 
67290.859400038      37641.5 
67963.767994038      36002.4 
68643.405673978      34761.2 
69329.839730718      33578.4 
70023.138128025      32074.9 
70723.369509305     30654.35 
71430.603204399      29637.9 
72144.909236443     28667.65 
72866.358328807        27432 
73595.021912095      26255.9 
74330.972131216      24729.5 
75074.281852528      24088.6 
75825.024671053      23349.5 
76583.274917764     22627.95 
77349.107666942      21706.4 
78122.598743611     20831.75 
78903.824731047        20000 
79692.862978358      19209.7 
80489.791608141      18457.8 
81294.689524223     17736.65 
82107.636419465        17061 
82928.712783659     16411.95 
83757.999911496     15793.55 
84595.579910611 15062.066666667 
85441.535709717      14369.9 
86295.951066814      13830.9 
87158.910577482     13263.55 
88030.499683257      12866.2 
88910.80468009     12409.15 
89799.912726891      11866.8 
90697.91185416     11351.95 
91604.890972701     10960.45 
92520.939882428 10495.566666667 
93446.149281253     10027.99 
94380.610774065     9716.785 
95324.416881806      9316.22 
96277.661050624      8934.82 
97240.43766113 8573.9166666667 
98212.842037741     8229.965 
99194.970458119     7967.255 
100186.9201627      7776.98 
199060.83304441      480.537 
399467.9878358      29.2578 
594753.39981818      5.68601 
793700.71765891       1.7784 
997811.18987739     0.722116 
1193529.3359837     0.345886 
1399507.0114645     0.185686 
