#  WAVELENGTH	        FLUX	
#  (ANGSTROM)	(ERG/CM2/S/A)	
############	############	
271.59076557974  1.25158E-23 
277.04973996789  9.63656E-23 
282.61843974125  4.83571E-22 
288.29907038004  2.48951E-21 
294.09388169468  1.19066E-20 
300.00516871675  4.17767E-20 
306.03527260795  2.25358E-19 
315.30844740325   2.1923E-18 
324.86260866801  1.85049E-17 
334.70627057326  1.37084E-16 
344.8482052779  9.02504E-16 
355.29745074603  4.47734E-15 
362.43892950602  2.04879E-14 
373.42119150899   8.6879E-14 
384.7362270329   3.9855E-13 
392.46942519626  1.68809E-12 
404.36164124913  6.63219E-12 
412.48931023824   2.1439E-11 
420.78034537403  5.82092E-11 
429.23803031605  1.52051E-10 
437.8657147254  5.36715E-10 
446.66681559138   1.59658E-9 
455.64481858477   4.08066E-9 
469.4513122327   1.10836E-8 
478.88728360858   2.88107E-8 
488.51291800911     7.188E-8 
498.3320276611   1.72512E-7 
503.31534793771   3.54708E-7 
508.34850141708   6.32358E-7 
518.56630629557   1.19213E-6 
528.98948905211   2.57555E-6 
539.62217778206   5.33777E-6 
545.01839955988   1.08762E-5 
555.97326939103   2.14602E-5 
567.14833210579   4.12826E-5 
578.54801358112   7.69699E-5 
584.33349371693  0.000142305 
596.07859694064  0.000255758 
608.05977673914  0.000450264 
614.14037450653  0.000777434 
626.48459603412   0.00131785 
639.0769364144   0.00219499 
645.46770577855   0.00359493 
651.92238283633   0.00527284 
658.44160666469    0.0073126 
671.67628295866    0.0115204 
678.39304578824    0.0178921 
692.02874600859    0.0274125 
698.94903346867    0.0414535 
712.99790904139    0.0643987 
720.12788813181    0.0949194 
734.60245868325     0.133279 
741.94848327009     0.192321 
749.36796810279     0.274604 
764.43026426165     0.388135 
772.07456690427     0.543287 
779.79531257331     0.753307 
787.59326569905      1.03525 
803.4238903396      1.41042 
811.45812924299       1.9057 
819.57271053542      2.55449 
827.76843764078      3.39743 
844.40658323736      4.48621 
852.85064906973      5.88061 
861.37915556043      7.65571 
869.99294711603      9.89969 
878.69287658719        12.72 
887.47980535306      16.2431 
896.3546034066      20.6137 
914.37133093507      154.085 
923.51504424442      848.059 
932.75019468686      1391.22 
942.07769663373      3117.12 
951.49847360007       243720 
961.01345833607       256479 
970.62359291943      6477.08 
980.32982884862      3276280 
990.13312713711      5518010 
1000.0344584085      3488210 
1010.0348029926       183658 
1020.1351510225      6017.64 
1030.3365025327       281912 
1040.639867558      5363110 
1051.0462662336     12146500 
1061.556728896     13642600 
1072.1722961849     16539800 
1082.8940191468     17362500 
1093.7229593382     17044900 
1104.6601889316     22166850 
1115.7067908209     24476000 
1126.8638587291     23963200 
1138.1324973164     20895100 
1149.5138222896     17229300 
1161.0089605125     14096600 
1172.6190501176      8711070 
1184.3452406188   7500421.75 
1196.188693025        30592 
1208.1505799552        10198 
1220.2320857548      33590.2 
1232.4344066123      63093.7 
1244.7587506785      4864185 
1257.2063381852     10832800 
1269.7784015671     18449900 
1282.4761855828     26809050 
1295.3009474386     26315400 
1308.253956913     35380600 
1321.3364964821     38979300 
1334.5498614469     42586000 
1347.8953600614     45217400 
1361.374313662     43663600 
1374.9880567986     47921800 
1388.7379373666     50620000 
1402.6253167403     51518600 
1416.6515699077     51987600 
1430.8180856068 51705582.352941 
1445.1262664628 55902376.923077 
1459.5775291275     55036200 
1474.1733044187     55564100 
1488.9150374629     57028000 
1503.8041878376 58216963.636364 
1518.8422297159     57493900 
1534.0306520131     58144150 
1549.3709585332     56951600 
1564.8646681186     54687550 
1580.5133147997     59302400 
1596.3184479477     57913000 
1612.2816324272     56794950 
1628.4044487515     56452700 
1644.688493239     55027650 
1661.1353781714 55401786.363636 
1677.7467319531     57723200 
1694.5241992726     55422050 
1711.4694412654     55490500 
1728.584135678     56527100 
1745.8699770348     58020900 
1763.3286768051     56287550 
1780.9619635732     57697750 
1798.7715832089     57210900 
1816.759299041     55952700 
1834.9268920314     55309900 
1853.2761609517     54845550 
1871.8089225613     56172850 
1890.5270117869     55233200 
1909.4322819047     54877050 
1928.5266047238     55321450 
1947.811870771     55709400 
1967.2899894787 55150947.058824 
1986.9628893735     54001700 
2006.8325182673     52371800 
2026.9008434499     53227400 
2047.1698518844     51686800 
2067.6415504033     52908560 
2088.3179659073     52279750 
2109.2011455664     51958400 
2130.293157022     50276250 
2151.5960885923     50414000 
2173.1120494782     49383200 
2194.843169973 49627633.333333 
2216.7916016727     48499250 
2238.9595176894     47257050 
2261.3491128663     47475750 
2283.962603995     47645900 
2306.8022300349     46824000 
2329.8702523353     44818200 
2353.1689548586 44897333.333333 
2376.7006444072     43142050 
2400.4676508513     43598350 
2424.4723273598     44306700 
2448.7170506334     43793250 
2473.2042211397 43393566.666667 
2497.9362633511 44122565.217391 
2522.9156259846 41761285.185185 
2548.1447822445     42768250 
2573.6262300669 43673766.666667 
2599.3624923676 42537066.666667 
2625.3561172913     43870300 
2651.6096784642 43842866.666667 
2678.1257752488     43639600 
2704.9070330013     42775600 
2731.9561033313     41720700 
2759.2756643647     42480800 
2786.8684210083     40426600 
2814.7371052184     42573400 
2842.8844762706     41328500 
2871.3133210333 41532366.666667 
2900.0264542436     42278500 
2929.026718786     41362650 
2958.3169859739     41286200 
2987.9001558336     41246050 
3017.779157392     41247500 
3047.9569489659     40769250 
3078.4365184556     40627900 
3109.2208836401     40154800 
3140.3130924765     39868500 
3171.7162234013     39220000 
3203.4333856353     39160100 
3235.4677194916     39012300 
3267.8223966866     38935700 
3300.5006206534     38598450 
3333.50562686     38067300 
3366.8406831286     37887900 
3400.5090899598     37728300 
3434.5141808594     37528900 
3468.859322668     37225550 
3503.5479158947     36971050 
3538.5833950537     36641550 
3573.9692290042     36377700 
3609.7089212942     36088840 
3645.8060105072 36180666.666667 
3682.2640706123     45378850 
3719.0867113184     85791450 
3756.2775784316     98047450 
3793.8403542159    100975300 
3831.778757758    109660500 
3870.0965453356     89760300 
3908.797510789    106434500 
3947.8854858969     95166650 
3987.3643407558    102332000 
4027.2379841634    100116200 
4067.510364005     96724300 
4108.1854676451     87774150 
4149.2673223215 93116933.333333 
4190.7599955447     90568200 
4232.6675955002     88532750 
4274.9942714552     86493100 
4317.7442141697     76313050 
4360.9216563114     82680800 
4404.5308728746     80981700 
4448.5761816033     78579100 
4493.0619434193     76553950 
4537.9925628535     74832100 
4583.3724884821     73307650 
4629.2062133669     71371700 
4675.4982755006     69455150 
4722.2532582556     68008550 
4769.4757908381     66208300 
4817.1705487465     63075150 
4865.342254234     59073700 
4913.9956767763     61056000 
4963.1356335441 59481433.333333 
5012.7669898795     57934600 
5062.8946597783     56479800 
5113.5236063761     55025400 
5164.6588424398 53580033.333333 
5216.3054308642     52233750 
5268.4684851729 50904833.333333 
5321.1531700246     49399500 
5374.3647017249     48163750 
5428.1083487421     46964500 
5482.3894322295 45572066.666667 
5537.2133265518     44232800 
5592.5854598173     43149150 
5648.5113144155 42099166.666667 
5704.9964275597     40879800 
5762.0463918353     39702500 
5819.6668557536     38537800 
5877.8635243112 37468966.666667 
5936.6421595543     36408500 
5996.0085811498     35389000 
6055.9686669613     34402700 
6116.5283536309 33447166.666667 
6177.6936371672     32529400 
6239.4705735389     31636300 
6301.8652792743     30768000 
6364.883932067 29941533.333333 
6428.5327713877     29011625 
6492.8180991016     27656100 
6557.7462800926     25426100 
6623.3237428935     26646200 
6689.5569803225     25838900 
6756.4525501257 25060166.666667 
6824.0170756269     24310025 
6892.2572463832 23586633.333333 
6961.179818847     22891200 
7030.7916170355     22216800 
7101.0995332059     21573625 
7172.1105285379 20949266.666667 
7243.8316338233     20348550 
7316.2699501615 19768966.666667 
7389.4326496631     19209825 
7463.3269761598     18594075 
7537.9602459214     18003825 
7613.3398483806     17505300 
7689.4732468644     17024675 
7766.367979333     16483475 
7844.0316591264     15983875 
7922.4719757176     15496225 
8001.6966954748     15026325 
8081.7136624296     14573275 
8162.5307990539     14181075 
8244.1561070444     13799775 
8326.5976681148     13250850 
8409.863644796     13233860 
8493.9622812439     13264850 
8578.9019040564     13710950 
8664.6909230969     13133640 
8751.3378323279     13517275 
8838.8512106512     12609025 
8927.2397227577     12427280 
9016.5121199853     12199500 
9106.6772411851     11944340 
9197.744013597     11048910 
9289.721453733     11202600 
9382.6186682703     10812940 
9476.444854953     10083480 
9571.2093035025     10118725 
9666.9213965375      9811816 
9763.5906105029      9482262 
9861.226516608      9165650 
9959.838781774 8802214.6666667 
10059.437169592      8390295 
10160.031541288      8319570 
10261.631856701      8050130 
10364.248175268      7791740 
10467.89065702      7543395 
10572.56956359      7246310 
10678.295259226      6964165 
10785.078211819      6746125 
10892.928993937      6298505 
11001.858283876      6340760 
11111.876866715      6148595 
11222.995635382 5917773.3333333 
11335.225591736      5698665 
11448.577847653      5530330 
11563.06362613 5328513.3333333 
11678.694262391      5134995 
11795.481205015      4987255 
11913.436017065      4809880 
12032.570377236      4639840 
12152.896081008      4509420 
12274.425041818 4352736.6666667 
12397.169292236      4202385 
12521.140985159      4058990 
12646.35239501      3921210 
12772.81591896      3700630 
12900.54407815      3638610 
13029.549518932      3518440 
13159.845014121 3403323.3333333 
13291.443464262      3292760 
13424.357898905 3186693.3333333 
13558.601477894      3065090 
13694.187492673      2949070 
13831.129367599      2856490 
13969.440661275 2767673.3333333 
14109.135067888 2665533.3333333 
14250.226418567      2568140 
14392.728682753 2474906.6666667 
14536.65596958 2390382.6666667 
14682.022529276 2308513.3333333 
14828.842754569 2224463.3333333 
14977.131182115      2137860 
15126.902493936      2070020 
15278.171518875 1996723.3333333 
15430.953234064 1950796.6666667 
15585.262766404 1895516.6666667 
15741.115394068 1840313.3333333 
15898.526548009 1816885.7142857 
16057.511813489      1699910 
16218.086931624      1699230 
16380.26780094      1591690 
16544.07047895      1593975 
16709.511183739      1497170 
16876.606295577      1477270 
17045.372358532      1430740 
17215.826082118      1345885 
17387.984342939      1314345 
17561.864186368      1274380 
17737.482828232      1235635 
17914.857656514      1186000 
18094.006233079      1117260 
18274.94629541      1094195 
18457.695758364      1061960 
18642.272715948    1010951.5 
18828.695443107       991156 
19016.982397539       953800 
19207.152221514       917785 
19399.223743729       867217 
19593.215981166     850981.5 
19789.148140978       819820 
19987.039622388     790068.5 
20186.910018612     761654.5 
20388.779118798       734511 
20592.666909986     708568.5 
20798.593579086     683760.5 
21006.579514877     660027.5 
21216.645310025     637309.5 
21428.811763126       615540 
21643.099880757       582374 
21859.530879564       565125 
22078.12618836     546403.5 
22298.907450244       528450 
22521.896524746     511231.5 
22747.115489993       491085 
22974.586644893       471836 
23204.332511342     456973.5 
23436.375836456       438969 
23670.73959482       421889 
23907.446990769       408400 
24146.521460676       392938 
24387.986675283       378347 
24631.866542036       365199 
24878.185207456     350154.5 
25126.967059531 338651.66666667 
25378.236730126     329891.5 
25632.019097427 314915.33333333 
25888.339288402     307005.5 
26147.222681286 289077.66666667 
26408.694908098 284584.33333333 
26672.781857179       269214 
26939.509675751 265269.33333333 
27208.904772509       254421 
27480.993820234 240786.66666667 
27755.803758436       235930 
28033.361796021 228096.66666667 
28313.695413981       219108 
28596.832368121 207748.33333333 
28882.800691802       202421 
29171.62869872       194675 
29463.344985707       187294 
29757.978435564 180260.66666667 
30055.55821992       171947 
30356.113802119 166526.66666667 
30659.67494014 161051.33333333 
30966.271689541 155221.66666667 
31275.934406437 149654.66666667 
31588.693750501 144334.66666667 
31904.580688006       139415 
32223.626494886     133600.5 
32545.862759835       128970 
32871.321387434     122943.5 
33200.034601308       118734 
33532.034947321       114762 
33867.355296794       110964 
34206.028849762       106124 
34548.08913826       102667 
34893.570029642      99345.1 
35242.505729939     95091.15 
35594.930787238      91173.3 
35950.880095111     87359.25 
36310.388896062      84278.9 
36673.492785022      81938.8 
37040.227712872      78746.6 
37410.629990001     74952.45 
37784.736289901      72567.6 
38162.5836528      69871.3 
38544.209489328      67401.9 
38929.651584221     64251.35 
39318.948100064      62388.6 
39712.137581064      59817.6 
40109.258956875      56834.8 
40510.351546444      55602.8 
40915.455061908     53551.95 
41324.609612527      51069.8 
41737.855708653      49717.9 
42155.234265739      47932.3 
42576.786608396     46225.15 
43002.55447448      44592.8 
43432.580019225     42641.55 
43866.905819417 41150.233333333 
44305.574877612      39453.3 
44748.630626388     38084.45 
45196.116932652      36804.9 
45648.078101978      35281.5 
46104.558882998     33494.15 
46565.604471828      32367.4 
47031.260516546 31408.466666667 
47501.573121712     30149.75 
47976.588852929     29196.45 
48456.354741458      28045.1 
48940.918288873      26953.3 
49430.327471761 25923.666666667 
49924.630746479     24911.75 
50423.877053944 23981.666666667 
50928.115824483     22888.85 
51437.396982728 22221.833333333 
51951.770952555     21494.75 
52471.288662081      20627.7 
52996.001548702 19821.166666667 
53525.961564189      18974.6 
54061.221179831 18437.566666667 
54601.833391629 17655.566666667 
55147.851725545      16921.8 
55699.330242801 16465.166666667 
56256.323545229      15794.3 
56818.886780681 15063.933333333 
57387.075648488 14551.933333333 
57960.946404973 13972.766666667 
58540.555869022 13334.666666667 
59125.961427713      12814.7 
59717.22104199      12413.3 
60314.39325241 11947.833333333 
60917.537184934      11515.3 
61526.712556783 11085.633333333 
62141.979682351      10660.4 
62763.399479174 10195.033333333 
63391.033473966 9902.2166666667 
64024.943808706 9473.0514285714 
64665.193246793      9145.86 
65311.845179261      8827.13 
65964.963631053     8416.525 
66624.613267364      8128.36 
67290.859400038       7800.9 
67963.767994038      7490.48 
68643.405673978      7247.21 
69329.839730718      6995.01 
70023.138128025     6699.085 
70723.369509305     6395.665 
71430.603204399      6200.97 
72144.909236443      5987.71 
72866.358328807     5748.025 
73595.021912095     5506.905 
74330.972131216      5189.33 
75074.281852528      5062.07 
75825.024671053      4911.32 
76583.274917764      4762.91 
77349.107666942     4553.095 
78122.598743611     4392.935 
78903.824731047     4221.425 
79692.862978358      4058.17 
80489.791608141     3902.755 
81294.689524223     3734.965 
82107.636419465     3613.575 
82928.712783659      3479.03 
83757.999911496      3350.66 
84595.579910611 3198.6466666667 
85441.535709717      3053.79 
86295.951066814     2928.405 
87158.910577482     2824.485 
88030.499683257     2739.885 
88910.80468009     2646.035 
89799.912726891 2531.1666666667 
90697.91185416      2425.01 
91604.890972701      2343.09 
92520.939882428      2243.19 
93446.149281253     2139.935 
94380.610774065      2080.67 
95324.416881806      1996.33 
96277.661050624     1917.915 
97240.43766113 1841.4766666667 
98212.842037741     1765.425 
99194.970458119     1714.105 
100186.9201627      1673.93 
199060.83304441      108.367 
399467.9878358      6.82472 
594753.39981818      1.34535 
793700.71765891     0.423886 
997811.18987739     0.172802 
1193529.3359837    0.0829487 
1399507.0114645    0.0445791 
