#  WAVELENGTH	        FLUX	
#  (ANGSTROM)	(ERG/CM2/S/A)	
############	############	
362.43892950602  3.72072E-24 
373.42119150899   7.3227E-23 
384.7362270329  6.11055E-22 
392.46942519626  1.62299E-22 
404.36164124913  9.55693E-22 
412.48931023824  4.36372E-21 
420.78034537403  1.58812E-20 
429.23803031605  5.49286E-20 
437.8657147254  2.79854E-19 
446.66681559138  1.14204E-18 
455.64481858477  3.83051E-18 
469.4513122327  1.38739E-17 
478.88728360858  4.74281E-17 
488.51291800911  1.53742E-16 
498.3320276611  4.73414E-16 
503.31534793771  1.20688E-15 
508.34850141708  2.56639E-15 
518.56630629557  5.82638E-15 
528.98948905211  1.57505E-14 
539.62217778206  4.02582E-14 
545.01839955988  1.00408E-13 
555.97326939103  2.40286E-13 
567.14833210579  5.56145E-13 
578.54801358112  1.23311E-12 
584.33349371693  2.71438E-12 
596.07859694064  5.74198E-12 
608.05977673914  1.18243E-11 
614.14037450653  2.37309E-11 
626.48459603412  4.64834E-11 
639.0769364144  8.90117E-11 
645.46770577855  1.66742E-10 
651.92238283633  2.71338E-10 
658.44160666469  4.11066E-10 
671.67628295866  7.31838E-10 
678.39304578824   1.27866E-9 
692.02874600859   2.19483E-9 
698.94903346867   3.70292E-9 
712.99790904139   6.46029E-9 
720.12788813181   1.05405E-8 
734.60245868325    1.6171E-8 
741.94848327009   2.56715E-8 
749.36796810279   4.01941E-8 
764.43026426165    6.2105E-8 
772.07456690427   9.47494E-8 
779.79531257331   1.42806E-7 
787.59326569905   2.12677E-7 
803.4238903396   3.13301E-7 
811.45812924299   4.56524E-7 
819.57271053542   6.58395E-7 
827.76843764078    9.4017E-7 
844.40658323736   1.32964E-6 
852.85064906973   1.86308E-6 
861.37915556043   2.58718E-6 
869.99294711603   3.56156E-6 
878.69287658719   4.86338E-6 
887.47980535306   6.58716E-6 
896.3546034066   8.85173E-6 
914.37133093507    0.0450921 
923.51504424442      0.24577 
932.75019468686      0.34358 
942.07769663373     0.511926 
951.49847360007     0.740676 
961.01345833607     0.890584 
970.62359291943     0.781736 
980.32982884862      1.60368 
990.13312713711      1.94106 
1000.0344584085      2.41982 
1010.0348029926      2.30333 
1020.1351510225      2.48404 
1030.3365025327      3.82631 
1040.639867558      5.93301 
1051.0462662336       7.5903 
1061.556728896      9.23439 
1072.1722961849      11.4653 
1082.8940191468      14.0113 
1093.7229593382      16.5117 
1104.6601889316     51.92365 
1115.7067908209      79.4405 
1126.8638587291      94.6574 
1138.1324973164      100.003 
1149.5138222896      92.9354 
1161.0089605125      94.3669 
1172.6190501176      81.4842 
1184.3452406188    116.54385 
1196.188693025      25.1767 
1208.1505799552      8.41772 
1220.2320857548      29.7292 
1232.4344066123      76.2042 
1244.7587506785    114.49325 
1257.2063381852      212.512 
1269.7784015671      296.008 
1282.4761855828     512.5745 
1295.3009474386      793.158 
1308.253956913      1091.18 
1321.3364964821      1458.94 
1334.5498614469     1979.835 
1347.8953600614      2585.16 
1361.374313662      3148.96 
1374.9880567986      4081.15 
1388.7379373666      5226.73 
1402.6253167403      7058.94 
1416.6515699077      9360.99 
1430.8180856068 12029.770588235 
1445.1262664628 15817.938461538 
1459.5775291275      18028.9 
1474.1733044187        23834 
1488.9150374629      31715.6 
1503.8041878376 38728.104545455 
1518.8422297159      38467.9 
1534.0306520131      48542.1 
1549.3709585332      48034.8 
1564.8646681186      42928.2 
1580.5133147997     48692.75 
1596.3184479477      53250.6 
1612.2816324272     103319.1 
1628.4044487515       282390 
1644.688493239     601704.5 
1661.1353781714      1299530 
1677.7467319531      2018710 
1694.5241992726      2197385 
1711.4694412654      2680650 
1728.584135678      3067265 
1745.8699770348      3443630 
1763.3286768051      3221375 
1780.9619635732      3792150 
1798.7715832089      3890770 
1816.759299041      3731430 
1834.9268920314      3830085 
1853.2761609517      4016555 
1871.8089225613      4281860 
1890.5270117869      4394210 
1909.4322819047      4768935 
1928.5266047238      4828890 
1947.811870771 5300203.6363636 
1967.2899894787 5305377.6470588 
1986.9628893735 5211897.1428571 
2006.8325182673      5081855 
2026.9008434499      5591895 
2047.1698518844      5567385 
2067.6415504033    6079773.5 
2088.3179659073      5889065 
2109.2011455664      6044235 
2130.293157022      5648495 
2151.5960885923      5895465 
2173.1120494782      5918205 
2194.843169973 6221086.6666667 
2216.7916016727      6385265 
2238.9595176894      6087470 
2261.3491128663      6171075 
2283.962603995 6422133.3333333 
2306.8022300349      6496130 
2329.8702523353      5900650 
2353.1689548586 6315696.6666667 
2376.7006444072      5712020 
2400.4676508513      5993090 
2424.4723273598 6771753.3333333 
2448.7170506334      6808590 
2473.2042211397      6648340 
2497.9362633511 7018583.0434783 
2522.9156259846 6348625.9259259 
2548.1447822445      6885695 
2573.6262300669 7356466.6666667 
2599.3624923676 7138406.6666667 
2625.3561172913      8051690 
2651.6096784642      8265120 
2678.1257752488      8227415 
2704.9070330013      7958110 
2731.9561033313 7719923.3333333 
2759.2756643647 8273013.3333333 
2786.8684210083      6454905 
2814.7371052184 8832436.6666667 
2842.8844762706 8484426.6666667 
2871.3133210333 8690223.3333333 
2900.0264542436      9298480 
2929.026718786      9116855 
2958.3169859739      9260560 
2987.9001558336      9421760 
3017.779157392      9553580 
3047.9569489659      9589130 
3078.4365184556      9762620 
3109.2208836401      9687625 
3140.3130924765      9916430 
3171.7162234013      9667680 
3203.4333856353      9793740 
3235.4677194916      9937130 
3267.8223966866     10151100 
3300.5006206534     10248200 
3333.50562686     10094900 
3366.8406831286     10158100 
3400.5090899598     10390350 
3434.5141808594     10389900 
3468.859322668     10369350 
3503.5479158947     10568850 
3538.5833950537     10602650 
3573.9692290042     10532800 
3609.7089212942     10628400 
3645.8060105072     10719600 
3682.2640706123     12571300 
3719.0867113184     20105400 
3756.2775784316     26207850 
3793.8403542159     28822750 
3831.778757758     34967500 
3870.0965453356     24229400 
3908.797510789     35049750 
3947.8854858969     29449000 
3987.3643407558     35756100 
4027.2379841634     36124550 
4067.510364005     32894450 
4108.1854676451     29482000 
4149.2673223215     34252200 
4190.7599955447     33373300 
4232.6675955002     32799250 
4274.9942714552     31736300 
4317.7442141697     25134900 
4360.9216563114     30917000 
4404.5308728746     30723800 
4448.5761816033 30231066.666667 
4493.0619434193     29562250 
4537.9925628535     28981500 
4583.3724884821     28733550 
4629.2062133669 28206166.666667 
4675.4982755006     27531650 
4722.2532582556     27236950 
4769.4757908381 26601966.666667 
4817.1705487465     24142400 
4865.342254234 22973933.333333 
4913.9956767763     24889650 
4963.1356335441 24512966.666667 
5012.7669898795     24075400 
5062.8946597783 23625566.666667 
5113.5236063761     23117850 
5164.6588424398 22458466.666667 
5216.3054308642     22168000 
5268.4684851729 21732933.333333 
5321.1531700246 21268566.666667 
5374.3647017249     20865800 
5428.1083487421 20482133.333333 
5482.3894322295 20046533.333333 
5537.2133265518 19597966.666667 
5592.5854598173     19235450 
5648.5113144155 18878266.666667 
5704.9964275597 18465066.666667 
5762.0463918353     18057800 
5819.6668557536 17658066.666667 
5877.8635243112 17230966.666667 
5936.6421595543 16894366.666667 
5996.0085811498     16526700 
6055.9686669613 16172166.666667 
6116.5283536309     15806000 
6177.6936371672     15487400 
6239.4705735389 15151433.333333 
6301.8652792743 14835533.333333 
6364.883932067 14523233.333333 
6428.5327713877     14153025 
6492.8180991016 13377066.666667 
6557.7462800926 12307533.333333 
6623.3237428935 13253133.333333 
6689.5569803225     12954225 
6756.4525501257 12648366.666667 
6824.0170756269     12350975 
6892.2572463832 12062666.666667 
6961.179818847     11781325 
7030.7916170355 11510066.666667 
7101.0995332059     11241050 
7172.1105285379 10984766.666667 
7243.8316338233     10735600 
7316.2699501615     10492900 
7389.4326496631     10254875 
7463.3269761598    9992042.5 
7537.9602459214    9741277.5 
7613.3398483806 9524456.6666667 
7689.4732468644    9314197.5 
7766.367979333    9073427.5 
7844.0316591264    8854692.5 
7922.4719757176    8635837.5 
8001.6966954748      8424610 
8081.7136624296      8219140 
8162.5307990539    8021142.5 
8244.1561070444    7839297.5 
8326.5976681148    7604237.5 
8409.863644796      7429416 
8493.9622812439    7255457.5 
8578.9019040564      7377220 
8664.6909230969      7131792 
8751.3378323279    7438547.5 
8838.8512106512      6944020 
8927.2397227577      6954064 
9016.5121199853      6828665 
9106.6772411851      6816658 
9197.744013597    6234797.5 
9289.721453733      6483868 
9382.6186682703      6295074 
9476.444854953      5823286 
9571.2093035025      5950775 
9666.9213965375      5819194 
9763.5906105029      5663296 
9861.226516608      5506296 
9959.838781774 5271839.3333333 
10059.437169592      5052760 
10160.031541288      5086935 
10261.631856701      4951180 
10364.248175268      4820885 
10467.89065702      4690355 
10572.56956359 4530986.6666667 
10678.295259226      4387525 
10785.078211819      4268835 
10892.928993937      3942675 
11001.858283876      4063190 
11111.876866715      3963540 
11222.995635382 3837523.3333333 
11335.225591736      3719840 
11448.577847653      3629510 
11563.06362613 3514766.6666667 
11678.694262391      3404425 
11795.481205015      3322495 
11913.436017065 3226546.6666667 
12032.570377236      3131540 
12152.896081008      3058530 
12274.425041818 2968336.6666667 
12397.169292236      2881875 
12521.140985159 2797323.3333333 
12646.35239501      2715815 
12772.81591896      2533240 
12900.54407815      2549240 
13029.549518932      2477845 
13159.845014121      2408250 
13291.443464262      2341205 
13424.357898905 2276283.3333333 
13558.601477894      2201070 
13694.187492673      2127970 
13831.129367599      2070775 
13969.440661275 2014733.3333333 
14109.135067888 1949696.6666667 
14250.226418567 1887166.6666667 
14392.728682753 1824156.6666667 
14536.65596958      1769751 
14682.022529276 1715333.3333333 
14828.842754569 1661196.6666667 
14977.131182115 1604473.3333333 
15126.902493936 1553903.3333333 
15278.171518875 1497603.3333333 
15430.953234064      1458190 
15585.262766404 1417576.6666667 
15741.115394068 1378813.3333333 
15898.526548009      1373230 
16057.511813489      1271570 
16218.086931624      1298445 
16380.26780094      1194080 
16544.07047895      1229655 
16709.511183739      1131840 
16876.606295577      1140220 
17045.372358532      1105455 
17215.826082118      1021792 
17387.984342939      1012660 
17561.864186368       985304 
17737.482828232       955897 
17914.857656514     917339.5 
18094.006233079       848639 
18274.94629541     847381.5 
18457.695758364       822571 
18642.272715948     769475.5 
18828.695443107       766162 
19016.982397539     739628.5 
19207.152221514       710661 
19399.223743729       661930 
19593.215981166       660447 
19789.148140978       636546 
19987.039622388       613663 
20186.910018612       591744 
20388.779118798       570854 
20592.666909986     550820.5 
20798.593579086       531703 
21006.579514877     513340.5 
21216.645310025     495777.5 
21428.811763126       478461 
21643.099880757 448928.33333333 
21859.530879564       440124 
22078.12618836       425623 
22298.907450244       411795 
22521.896524746       398424 
22747.115489993       382683 
22974.586644893       367725 
23204.332511342       356252 
23436.375836456       342449 
23670.73959482     329233.5 
23907.446990769       318922 
24146.521460676 306766.66666667 
24387.986675283     295218.5 
24631.866542036 284687.66666667 
24878.185207456       272870 
25126.967059531       263558 
25378.236730126       256998 
25632.019097427 244825.66666667 
25888.339288402     238937.5 
26147.222681286 222799.33333333 
26408.694908098 221941.33333333 
26672.781857179       208339 
26939.509675751 207308.66666667 
27208.904772509 198788.33333333 
27480.993820234 186956.66666667 
27755.803758436       184507 
28033.361796021       178418 
28313.695413981       171421 
28596.832368121       161401 
28882.800691802 158433.33333333 
29171.62869872       152407 
29463.344985707 146660.66666667 
29757.978435564 141181.33333333 
30055.55821992 134144.33333333 
30356.113802119       130155 
30659.67494014 126206.33333333 
30966.271689541 121655.33333333 
31275.934406437       117318 
31588.693750501 113171.33333333 
31904.580688006     109333.2 
32223.626494886       104796 
32545.862759835       101179 
32871.321387434      96009.6 
33200.034601308     93181.65 
33532.034947321      90071.7 
33867.355296794     87110.85 
34206.028849762     83332.85 
34548.08913826        80628 
34893.570029642      78033.6 
35242.505729939     74715.15 
35594.930787238      71616.7 
35950.880095111     68635.25 
36310.388896062      66305.7 
36673.492785022     64386.45 
37040.227712872      61717.5 
37410.629990001      58776.1 
37784.736289901      56980.5 
38162.5836528     54891.55 
38544.209489328     52924.45 
38929.651584221     50421.65 
39318.948100064     48985.35 
39712.137581064     46947.05 
40109.258956875        44473 
40510.351546444     43663.25 
40915.455061908      42071.5 
41324.609612527      40053.8 
41737.855708653      39058.3 
42155.234265739     37673.15 
42576.786608396     36335.75 
43002.55447448      35058.3 
43432.580019225      33475.3 
43866.905819417 32351.133333333 
44305.574877612     31019.55 
44748.630626388     29953.35 
45196.116932652      28949.9 
45648.078101978 27754.533333333 
46104.558882998        26302 
46565.604471828     25421.75 
47031.260516546 24717.233333333 
47501.573121712     23733.05 
47976.588852929     22987.25 
48456.354741458      22093.2 
48940.918288873     21242.15 
49430.327471761      20435.7 
49924.630746479     19640.35 
50423.877053944      18910.7 
50928.115824483     18001.05 
51437.396982728 17518.733333333 
51951.770952555     16914.85 
52471.288662081      16261.4 
52996.001548702      15602.1 
53525.961564189     14973.55 
54061.221179831      14516.9 
54601.833391629      13905.1 
55147.851725545      13351.2 
55699.330242801 12968.733333333 
56256.323545229 12442.133333333 
56818.886780681 11879.266666667 
57387.075648488 11466.366666667 
57960.946404973      11018.6 
58540.555869022 10512.466666667 
59125.961427713 10107.066666667 
59717.22104199      9797.12 
60314.39325241 9425.5066666667 
60917.537184934      9071.29 
61526.712556783 8733.7133333333 
62141.979682351 8409.5866666667 
62763.399479174      8045.06 
63391.033473966 7810.7533333333 
64024.943808706 7472.2557142857 
64665.193246793       7218.7 
65311.845179261     6965.035 
65964.963631053      6642.16 
66624.613267364      6413.91 
67290.859400038      6160.29 
67963.767994038     5913.945 
68643.405673978       5718.3 
69329.839730718     5524.875 
70023.138128025     5287.305 
70723.369509305     5053.965 
71430.603204399      4895.43 
72144.909236443     4732.805 
72866.358328807      4539.83 
73595.021912095     4350.995 
74330.972131216     4104.115 
75074.281852528      4000.73 
75825.024671053      3879.97 
76583.274917764     3763.055 
77349.107666942     3603.535 
78122.598743611     3471.475 
78903.824731047       3336.3 
79692.862978358     3207.585 
80489.791608141      3085.03 
81294.689524223      2957.46 
82107.636419465      2857.01 
82928.712783659     2750.925 
83757.999911496      2649.68 
84595.579910611      2529.85 
85441.535709717     2416.265 
86295.951066814     2319.825 
87158.910577482      2236.55 
88030.499683257     2168.895 
88910.80468009      2093.77 
89799.912726891      2004.03 
90697.91185416     1919.305 
91604.890972701      1854.63 
92520.939882428 1777.0366666667 
93446.149281253      1696.27 
94380.610774065     1648.235 
95324.416881806 1581.6466666667 
96277.661050624     1518.885 
97240.43766113 1458.7866666667 
98212.842037741     1400.005 
99194.970458119     1357.895 
100186.9201627      1326.17 
199060.83304441      86.4089 
399467.9878358      5.46447 
594753.39981818       1.0786 
793700.71765891     0.340181 
997811.18987739     0.138818 
1193529.3359837    0.0666996 
1399507.0114645    0.0358777 
