#  WAVELENGTH	        FLUX	
#  (ANGSTROM)	(ERG/CM2/S/A)	
############	############	
446.66681559138  2.00422E-24 
455.64481858477  8.48479E-24 
469.4513122327  3.93903E-23 
478.88728360858  1.70837E-22 
488.51291800911  6.95719E-22 
498.3320276611   2.6671E-21 
503.31534793771  7.72703E-21 
508.34850141708  1.85589E-20 
518.56630629557  4.95029E-20 
528.98948905211  1.62494E-19 
539.62217778206  5.01235E-19 
545.01839955988  1.49733E-18 
555.97326939103  4.26548E-18 
567.14833210579  1.16811E-17 
578.54801358112  3.04799E-17 
584.33349371693  7.84596E-17 
596.07859694064  1.93158E-16 
608.05977673914  4.60601E-16 
614.14037450653  1.06551E-15 
626.48459603412   2.3946E-15 
639.0769364144  5.23872E-15 
645.46770577855  1.11655E-14 
651.92238283633  2.00893E-14 
658.44160666469  3.31642E-14 
671.67628295866  6.65494E-14 
678.39304578824  1.30604E-13 
692.02874600859   2.5093E-13 
698.94903346867  4.72383E-13 
712.99790904139  9.26512E-13 
720.12788813181   1.6761E-12 
734.60245868325  2.81531E-12 
741.94848327009  4.92979E-12 
749.36796810279  8.49192E-12 
764.43026426165  1.43997E-11 
772.07456690427  2.40518E-11 
779.79531257331   3.9596E-11 
787.59326569905   6.4268E-11 
803.4238903396  1.02963E-10 
811.45812924299  1.62835E-10 
819.57271053542  2.54358E-10 
827.76843764078  3.92677E-10 
844.40658323736  5.99264E-10 
852.85064906973  9.04483E-10 
861.37915556043   1.35063E-9 
869.99294711603   1.99608E-9 
878.69287658719   2.92135E-9 
887.47980535306   4.23454E-9 
896.3546034066   6.08087E-9 
914.37133093507   5.76777E-5 
923.51504424442  0.000206046 
932.75019468686  0.000264833 
942.07769663373  0.000424305 
951.49847360007  0.000639307 
961.01345833607  0.000798305 
970.62359291943  0.000976595 
980.32982884862   0.00166511 
990.13312713711   0.00217828 
1000.0344584085   0.00296464 
1010.0348029926   0.00348539 
1020.1351510225   0.00496987 
1030.3365025327   0.00707022 
1040.639867558    0.0097306 
1051.0462662336    0.0126153 
1061.556728896    0.0162663 
1072.1722961849    0.0213215 
1082.8940191468    0.0276129 
1093.7229593382    0.0342822 
1104.6601889316    0.1590418 
1115.7067908209     0.278378 
1126.8638587291     0.332887 
1138.1324973164     0.348476 
1149.5138222896     0.317081 
1161.0089605125     0.319489 
1172.6190501176     0.277317 
1184.3452406188    0.7993755 
1196.188693025     0.146839 
1208.1505799552    0.0702075 
1220.2320857548     0.196619 
1232.4344066123     0.427408 
1244.7587506785    0.6389415 
1257.2063381852      1.46323 
1269.7784015671      2.23708 
1282.4761855828      4.39827 
1295.3009474386      6.81224 
1308.253956913      9.68348 
1321.3364964821      13.0122 
1334.5498614469      19.8646 
1347.8953600614      27.9343 
1361.374313662      35.8246 
1374.9880567986      49.8234 
1388.7379373666      68.0856 
1402.6253167403     90.71315 
1416.6515699077      117.945 
1430.8180856068 145.80911764706 
1445.1262664628 189.48753846154 
1459.5775291275      228.472 
1474.1733044187     292.6165 
1488.9150374629      375.142 
1503.8041878376 467.53863636364 
1518.8422297159      529.436 
1534.0306520131     652.0605 
1549.3709585332      786.311 
1564.8646681186     930.9605 
1580.5133147997     1294.465 
1596.3184479477      1522.56 
1612.2816324272     1720.785 
1628.4044487515      2038.51 
1644.688493239     2243.985 
1661.1353781714 3060.3727272727 
1677.7467319531      5069.07 
1694.5241992726       7893.6 
1711.4694412654      15521.5 
1728.584135678     23108.85 
1745.8699770348      31318.4 
1763.3286768051        33361 
1780.9619635732      49524.8 
1798.7715832089      54831.6 
1816.759299041      53969.8 
1834.9268920314     63054.15 
1853.2761609517      77004.8 
1871.8089225613     92418.05 
1890.5270117869     108458.5 
1909.4322819047     127283.5 
1928.5266047238     134456.5 
1947.811870771 187076.27272727 
1967.2899894787 205662.52941176 
1986.9628893735 215100.19047619 
2006.8325182673     217497.5 
2026.9008434499     274203.5 
2047.1698518844       282575 
2067.6415504033    363390.85 
2088.3179659073       363918 
2109.2011455664     394009.5 
2130.293157022       379900 
2151.5960885923     425760.5 
2173.1120494782     452830.5 
2194.843169973 520515.66666667 
2216.7916016727       565947 
2238.9595176894     555077.5 
2261.3491128663     584622.5 
2283.962603995 662742.33333333 
2306.8022300349       701297 
2329.8702523353     525065.5 
2353.1689548586 637519.66666667 
2376.7006444072     494284.5 
2400.4676508513     600473.5 
2424.4723273598       928561 
2448.7170506334       992749 
2473.2042211397       961882 
2497.9362633511 1093161.3043478 
2522.9156259846 957841.92592593 
2548.1447822445      1078635 
2573.6262300669 1145843.3333333 
2599.3624923676 1051605.6666667 
2625.3561172913      1538435 
2651.6096784642      1690690 
2678.1257752488      1697130 
2704.9070330013 1627983.3333333 
2731.9561033313      1499180 
2759.2756643647      1742060 
2786.8684210083       834192 
2814.7371052184      2085600 
2842.8844762706      2054160 
2871.3133210333 2189746.6666667 
2900.0264542436      2484180 
2929.026718786      2474585 
2958.3169859739      2592250 
2987.9001558336      2702485 
3017.779157392      2802180 
3047.9569489659      2886520 
3078.4365184556      3026280 
3109.2208836401      3014200 
3140.3130924765      3214285 
3171.7162234013      3095300 
3203.4333856353      3201440 
3235.4677194916      3336990 
3267.8223966866      3497960 
3300.5006206534      3627100 
3333.50562686      3597270 
3366.8406831286      3647740 
3400.5090899598      3844900 
3434.5141808594      3899460 
3468.859322668      3898050 
3503.5479158947      4070130 
3538.5833950537      4171850 
3573.9692290042      4136750 
3609.7089212942      4267490 
3645.8060105072 4472273.3333333 
3682.2640706123      5810160 
3719.0867113184      9606720 
3756.2775784316     11516250 
3793.8403542159     12167500 
3831.778757758     13618100 
3870.0965453356     11313000 
3908.797510789     12283250 
3947.8854858969     11854900 
3987.3643407558     14029050 
4027.2379841634     14026950 
4067.510364005     13710600 
4108.1854676451     12806050 
4149.2673223215 13797166.666667 
4190.7599955447     13607650 
4232.6675955002     13567400 
4274.9942714552     13181200 
4317.7442141697     12037050 
4360.9216563114     13295050 
4404.5308728746     13130550 
4448.5761816033     13108600 
4493.0619434193     13011300 
4537.9925628535     12838850 
4583.3724884821     12892600 
4629.2062133669 12807566.666667 
4675.4982755006     12652400 
4722.2532582556     12639350 
4769.4757908381 12477566.666667 
4817.1705487465     11981100 
4865.342254234 11453966.666667 
4913.9956767763     11923350 
4963.1356335441     11821700 
5012.7669898795     11722450 
5062.8946597783 11614066.666667 
5113.5236063761     11389500 
5164.6588424398 11086066.666667 
5216.3054308642     11092150 
5268.4684851729 10941466.666667 
5321.1531700246 10816033.333333 
5374.3647017249     10687050 
5428.1083487421 10571666.666667 
5482.3894322295     10459700 
5537.2133265518 10316366.666667 
5592.5854598173     10192950 
5648.5113144155 10058766.666667 
5704.9964275597 9926276.6666667 
5762.0463918353      9778440 
5819.6668557536 9626726.6666667 
5877.8635243112      9448250 
5936.6421595543 9335686.6666667 
5996.0085811498      9189810 
6055.9686669613 9048926.6666667 
6116.5283536309 8872556.6666667 
6177.6936371672 8769053.3333333 
6239.4705735389 8618783.3333333 
6301.8652792743      8496850 
6364.883932067      8364710 
6428.5327713877      8195495 
6492.8180991016 7953743.3333333 
6557.7462800926 7441536.6666667 
6623.3237428935      7828800 
6689.5569803225    7689637.5 
6756.4525501257      7551850 
6824.0170756269      7416130 
6892.2572463832 7284206.6666667 
6961.179818847      7152590 
7030.7916170355 7025886.6666667 
7101.0995332059      6896200 
7172.1105285379 6770593.3333333 
7243.8316338233      6652575 
7316.2699501615      6534630 
7389.4326496631      6415415 
7463.3269761598    6285667.5 
7537.9602459214    6162592.5 
7613.3398483806      6051520 
7689.4732468644      5943260 
7766.367979333      5821200 
7844.0316591264      5708140 
7922.4719757176      5593170 
8001.6966954748      5482700 
8081.7136624296    5373757.5 
8162.5307990539    5263852.5 
8244.1561070444    5160152.5 
8326.5976681148      5031635 
8409.863644796      4986662 
8493.9622812439    4871947.5 
8578.9019040564      4959490 
8664.6909230969      4796828 
8751.3378323279    4858887.5 
8838.8512106512      4674200 
8927.2397227577      4611392 
9016.5121199853      4529040 
9106.6772411851      4474044 
9197.744013597    4267567.5 
9289.721453733      4286882 
9382.6186682703      4177788 
9476.444854953      4011634 
9571.2093035025    3994322.5 
9666.9213965375      3911406 
9763.5906105029      3824404 
9861.226516608      3734586 
9959.838781774 3640042.6666667 
10059.437169592      3523040 
10160.031541288      3492720 
10261.631856701      3411755 
10364.248175268      3337635 
10467.89065702      3258455 
10572.56956359 3162883.3333333 
10678.295259226      3077700 
10785.078211819      3010285 
10892.928993937      2882895 
11001.858283876      2887795 
11111.876866715      2824855 
11222.995635382      2747410 
11335.225591736      2675000 
11448.577847653      2620485 
11563.06362613 2547453.3333333 
11678.694262391      2478725 
11795.481205015      2425470 
11913.436017065 2366903.3333333 
12032.570377236      2308385 
12152.896081008      2263090 
12274.425041818 2205453.3333333 
12397.169292236      2150500 
12521.140985159 2095786.6666667 
12646.35239501      2044860 
12772.81591896 1957816.6666667 
12900.54407815      1936070 
13029.549518932      1888940 
13159.845014121      1843120 
13291.443464262      1798975 
13424.357898905 1756013.3333333 
13558.601477894 1705883.3333333 
13694.187492673 1656306.6666667 
13831.129367599      1618570 
13969.440661275      1580660 
14109.135067888 1536326.6666667 
14250.226418567 1493603.3333333 
14392.728682753 1448636.6666667 
14536.65596958 1412194.3333333 
14682.022529276 1373613.3333333 
14828.842754569 1334256.6666667 
14977.131182115 1292196.6666667 
15126.902493936      1261580 
15278.171518875 1224866.6666667 
15430.953234064      1203240 
15585.262766404 1175686.6666667 
15741.115394068 1146776.6666667 
15898.526548009      1137700 
16057.511813489      1071840 
16218.086931624      1075710 
16380.26780094      1009490 
16544.07047895      1013575 
16709.511183739     952035.5 
16876.606295577       941987 
17045.372358532       913064 
17215.826082118     859202.5 
17387.984342939       840474 
17561.864186368       816026 
17737.482828232       792386 
17914.857656514     761793.5 
18094.006233079       718394 
18274.94629541       704550 
18457.695758364       684393 
18642.272715948       650037 
18828.695443107       639481 
19016.982397539     616869.5 
19207.152221514     594163.5 
19399.223743729     562416.5 
19593.215981166       552066 
19789.148140978     532563.5 
19987.039622388     513833.5 
20186.910018612     495795.5 
20388.779118798       478682 
20592.666909986       462166 
20798.593579086     446437.5 
21006.579514877     431290.5 
21216.645310025       416794 
21428.811763126     403051.5 
21643.099880757 382116.66666667 
21859.530879564       370819 
22078.12618836     358796.5 
22298.907450244     347372.5 
22521.896524746       336217 
22747.115489993 323185.33333333 
22974.586644893       310750 
23204.332511342     301148.5 
23436.375836456 289574.66666667 
23670.73959482       278615 
23907.446990769     269955.5 
24146.521460676 259978.33333333 
24387.986675283     250495.5 
24631.866542036       241818 
24878.185207456       232304 
25126.967059531       224625 
25378.236730126       218367 
25632.019097427 209179.33333333 
25888.339288402     203651.5 
26147.222681286       192644 
26408.694908098 188595.66666667 
26672.781857179       179587 
26939.509675751       176073 
27208.904772509 169009.66666667 
27480.993820234 160717.66666667 
27755.803758436     156946.5 
28033.361796021 151827.66666667 
28313.695413981 145945.66666667 
28596.832368121 139040.66666667 
28882.800691802 135017.66666667 
29171.62869872 129938.66666667 
29463.344985707       125097 
29757.978435564 120473.66666667 
30055.55821992 115248.33333333 
30356.113802119       111646 
30659.67494014 107822.66666667 
30966.271689541 103964.33333333 
31275.934406437 100298.13333333 
31588.693750501      96789.5 
31904.580688006     93537.54 
32223.626494886     89691.45 
32545.862759835      86624.4 
32871.321387434     82970.55 
33200.034601308      79882.1 
33532.034947321      77227.4 
33867.355296794      74696.9 
34206.028849762     71489.45 
34548.08913826      69192.4 
34893.570029642      66978.4 
35242.505729939     64144.65 
35594.930787238     61511.85 
35950.880095111     58973.95 
36310.388896062      57013.6 
36673.492785022      55372.3 
37040.227712872      53264.6 
37410.629990001      50820.7 
37784.736289901     49096.75 
38162.5836528     47273.25 
38544.209489328     45499.35 
38929.651584221     43543.35 
39318.948100064      42100.9 
39712.137581064      40469.9 
40109.258956875     38602.65 
40510.351546444      37564.9 
40915.455061908     36193.35 
41324.609612527     34704.55 
41737.855708653     33625.15 
42155.234265739        32432 
42576.786608396     31287.65 
43002.55447448      30193.1 
43432.580019225     29005.15 
43866.905819417 27898.133333333 
44305.574877612        26741 
44748.630626388     25861.25 
45196.116932652     24998.15 
45648.078101978 23969.266666667 
46104.558882998     22850.55 
46565.604471828      22110.4 
47031.260516546      21351.5 
47501.573121712      20498.8 
47976.588852929      19852.7 
48456.354741458      19076.6 
48940.918288873     18337.95 
49430.327471761 17640.866666667 
49924.630746479     16964.35 
50423.877053944 16331.466666667 
50928.115824483      15661.6 
51437.396982728      15141.8 
51951.770952555      14605.2 
52471.288662081      14058.9 
52996.001548702 13476.233333333 
53525.961564189     12964.55 
54061.221179831      12541.9 
54601.833391629      12019.8 
55147.851725545     11570.05 
55699.330242801 11209.133333333 
56256.323545229      10755.6 
56818.886780681      10300.8 
57387.075648488 9914.9033333333 
57960.946404973 9527.4666666667 
58540.555869022 9132.7866666667 
59125.961427713 8782.9466666667 
59717.22104199 8471.4466666667 
60314.39325241 8151.1366666667 
60917.537184934       7845.7 
61526.712556783      7554.67 
62141.979682351       7276.7 
62763.399479174 6992.8233333333 
63391.033473966      6758.53 
64024.943808706 6466.2314285714 
64665.193246793       6246.6 
65311.845179261     6028.305 
65964.963631053      5750.44 
66624.613267364      5552.94 
67290.859400038     5352.615 
67963.767994038     5122.205 
68643.405673978      4952.18 
69329.839730718     4786.215 
70023.138128025      4579.73 
70723.369509305      4380.03 
71430.603204399       4241.1 
72144.909236443     4102.885 
72866.358328807      3933.79 
73595.021912095      3770.49 
74330.972131216     3588.995 
75074.281852528     3468.595 
75825.024671053      3363.01 
76583.274917764     3261.815 
77349.107666942      3128.74 
78122.598743611     3009.505 
78903.824731047      2892.46 
79692.862978358     2781.065 
80489.791608141      2674.99 
81294.689524223      2570.27 
82107.636419465     2477.595 
82928.712783659     2385.705 
83757.999911496      2298.06 
84595.579910611 2194.2933333333 
85441.535709717      2095.83 
86295.951066814     2018.135 
87158.910577482     1946.495 
88030.499683257     1881.585 
88910.80468009     1816.565 
89799.912726891 1738.8066666667 
90697.91185416       1665.4 
91604.890972701     1609.365 
92520.939882428      1542.36 
93446.149281253       1476.9 
94380.610774065      1430.81 
95324.416881806       1372.9 
96277.661050624      1318.36 
97240.43766113 1266.3366666667 
98212.842037741     1215.985 
99194.970458119     1178.775 
100186.9201627      1151.27 
199060.83304441      75.1897 
399467.9878358      4.76421 
594753.39981818     0.941387 
793700.71765891     0.297117 
997811.18987739     0.121307 
1193529.3359837    0.0583042 
1399507.0114645    0.0313667 
