#  WAVELENGTH	        FLUX	
#  (ANGSTROM)	(ERG/CM2/S/A)	
############	############	
384.7362270329  4.95944E-24 
392.46942519626  3.29271E-23 
404.36164124913  1.98093E-22 
412.48931023824  9.21295E-22 
420.78034537403  3.40612E-21 
429.23803031605    1.196E-20 
437.8657147254  6.21599E-20 
446.66681559138  2.58098E-19 
455.64481858477  8.78659E-19 
469.4513122327  3.23332E-18 
478.88728360858  1.12229E-17 
488.51291800911  3.69152E-17 
498.3320276611  1.15275E-16 
503.31534793771  2.95942E-16 
508.34850141708  6.33737E-16 
518.56630629557   1.4537E-15 
528.98948905211  3.97855E-15 
539.62217778206  1.02936E-14 
545.01839955988  2.59701E-14 
555.97326939103  6.28464E-14 
567.14833210579   1.4704E-13 
578.54801358112  3.29481E-13 
584.33349371693  7.32498E-13 
596.07859694064  1.56469E-12 
608.05977673914  3.25248E-12 
614.14037450653  6.58758E-12 
626.48459603412   1.3018E-11 
639.0769364144  2.51423E-11 
645.46770577855  4.74886E-11 
651.92238283633  7.77764E-11 
658.44160666469  1.18482E-10 
671.67628295866  2.12565E-10 
678.39304578824  3.74189E-10 
692.02874600859  6.46913E-10 
698.94903346867   1.09913E-9 
712.99790904139   1.93209E-9 
720.12788813181   3.17321E-9 
734.60245868325   4.89684E-9 
741.94848327009   7.82275E-9 
749.36796810279   1.23232E-8 
764.43026426165    1.9155E-8 
772.07456690427   2.93945E-8 
779.79531257331    4.4554E-8 
787.59326569905   6.67239E-8 
803.4238903396   9.88239E-8 
811.45812924299   1.44754E-7 
819.57271053542   2.09834E-7 
827.76843764078   3.01148E-7 
844.40658323736    4.2799E-7 
852.85064906973   6.02541E-7 
861.37915556043   8.40642E-7 
869.99294711603   1.16253E-6 
878.69287658719   1.59451E-6 
887.47980535306   2.16917E-6 
896.3546034066   2.92751E-6 
914.37133093507    0.0200423 
923.51504424442     0.106328 
932.75019468686     0.148055 
942.07769663373      0.21905 
951.49847360007     0.313913 
961.01345833607     0.387967 
970.62359291943     0.363357 
980.32982884862     0.689217 
990.13312713711      0.84808 
1000.0344584085      1.07925 
1010.0348029926      1.09166 
1020.1351510225      1.16025 
1030.3365025327      1.84978 
1040.639867558      2.72702 
1051.0462662336      3.44195 
1061.556728896      4.22725 
1072.1722961849      5.28018 
1082.8940191468      6.52193 
1093.7229593382      7.75941 
1104.6601889316      22.7934 
1115.7067908209      35.2613 
1126.8638587291      43.8575 
1138.1324973164       47.902 
1149.5138222896      46.3533 
1161.0089605125      48.7948 
1172.6190501176      44.0221 
1184.3452406188     54.14355 
1196.188693025      15.2106 
1208.1505799552      5.23336 
1220.2320857548      18.1471 
1232.4344066123      46.1938 
1244.7587506785     63.85895 
1257.2063381852      121.033 
1269.7784015671      168.092 
1282.4761855828      290.594 
1295.3009474386      438.884 
1308.253956913      586.547 
1321.3364964821       761.41 
1334.5498614469    1094.8955 
1347.8953600614      1406.79 
1361.374313662       1698.9 
1374.9880567986      2158.58 
1388.7379373666      2704.84 
1402.6253167403     3346.135 
1416.6515699077      4059.28 
1430.8180856068 4778.2864705882 
1445.1262664628 5803.7707692308 
1459.5775291275       6583.5 
1474.1733044187         7949 
1488.9150374629      9557.05 
1503.8041878376 11257.886363636 
1518.8422297159      12696.8 
1534.0306520131     14663.45 
1549.3709585332      16256.2 
1564.8646681186     17484.95 
1580.5133147997      21476.1 
1596.3184479477        23816 
1612.2816324272        28615 
1628.4044487515      42128.9 
1644.688493239    110548.55 
1661.1353781714 481072.40909091 
1677.7467319531      1011800 
1694.5241992726      1347515 
1711.4694412654      1898855 
1728.584135678      2331530 
1745.8699770348      2696050 
1763.3286768051      2511625 
1780.9619635732      3074910 
1798.7715832089      3177815 
1816.759299041      3028200 
1834.9268920314      3138360 
1853.2761609517      3334635 
1871.8089225613      3580930 
1890.5270117869      3749815 
1909.4322819047      4129400 
1928.5266047238      4170745 
1947.811870771 4682885.4545455 
1967.2899894787 4728927.0588235 
1986.9628893735 4639191.9047619 
2006.8325182673      4523415 
2026.9008434499      5069805 
2047.1698518844      5103865 
2067.6415504033      5627920 
2088.3179659073      5429710 
2109.2011455664      5612415 
2130.293157022      5264040 
2151.5960885923      5468890 
2173.1120494782      5509180 
2194.843169973      5879540 
2216.7916016727      6098840 
2238.9595176894      5800595 
2261.3491128663      5847185 
2283.962603995 6101816.6666667 
2306.8022300349      6244690 
2329.8702523353      5625605 
2353.1689548586 6073336.6666667 
2376.7006444072      5436675 
2400.4676508513      5711870 
2424.4723273598      6529890 
2448.7170506334      6615205 
2473.2042211397      6373660 
2497.9362633511 6781628.2608696 
2522.9156259846 6026104.0740741 
2548.1447822445      6587880 
2573.6262300669      7137430 
2599.3624923676 6924776.6666667 
2625.3561172913      7904310 
2651.6096784642 8153423.3333333 
2678.1257752488      8107075 
2704.9070330013      7771860 
2731.9561033313      7511590 
2759.2756643647 8113403.3333333 
2786.8684210083      6040355 
2814.7371052184      8737430 
2842.8844762706 8314783.3333333 
2871.3133210333 8572673.3333333 
2900.0264542436      9212170 
2929.026718786      9009075 
2958.3169859739      9142260 
2987.9001558336      9269505 
3017.779157392      9395590 
3047.9569489659      9468930 
3078.4365184556      9626490 
3109.2208836401      9560250 
3140.3130924765      9811745 
3171.7162234013      9504050 
3203.4333856353      9600225 
3235.4677194916      9770570 
3267.8223966866     10021900 
3300.5006206534     10117500 
3333.50562686      9961650 
3366.8406831286      9980030 
3400.5090899598     10196450 
3434.5141808594     10181000 
3468.859322668     10164950 
3503.5479158947     10353200 
3538.5833950537     10390100 
3573.9692290042     10276100 
3609.7089212942     10397380 
3645.8060105072 10533633.333333 
3682.2640706123     11514200 
3719.0867113184     16140600 
3756.2775784316     20136700 
3793.8403542159     21765700 
3831.778757758     25685400 
3870.0965453356     19028100 
3908.797510789     25567700 
3947.8854858969     22275200 
3987.3643407558     26458200 
4027.2379841634     26681550 
4067.510364005     24789250 
4108.1854676451     22590350 
4149.2673223215     25684500 
4190.7599955447     25139700 
4232.6675955002     24833550 
4274.9942714552     24153000 
4317.7442141697     19963050 
4360.9216563114     23770000 
4404.5308728746     23648800 
4448.5761816033 23372433.333333 
4493.0619434193     22980950 
4537.9925628535     22620450 
4583.3724884821     22486200 
4629.2062133669 22161266.666667 
4675.4982755006     21726050 
4722.2532582556     21543350 
4769.4757908381 21131633.333333 
4817.1705487465     19500550 
4865.342254234     18642800 
4913.9956767763     19968950 
4963.1356335441     19737200 
5012.7669898795     19451050 
5062.8946597783     19154900 
5113.5236063761     18793550 
5164.6588424398     18290000 
5216.3054308642     18136200 
5268.4684851729 17833566.666667 
5321.1531700246 17504866.666667 
5374.3647017249     17219850 
5428.1083487421 16954666.666667 
5482.3894322295     16663300 
5537.2133265518     16336200 
5592.5854598173     16077500 
5648.5113144155 15820433.333333 
5704.9964275597     15520300 
5762.0463918353 15222766.666667 
5819.6668557536 14927533.333333 
5877.8635243112 14600933.333333 
5936.6421595543 14360566.666667 
5996.0085811498     14084500 
6055.9686669613 13817466.666667 
6116.5283536309     13532600 
6177.6936371672 13295833.333333 
6239.4705735389 13038333.333333 
6301.8652792743 12796133.333333 
6364.883932067     12554500 
6428.5327713877     12265450 
6492.8180991016     11685700 
6557.7462800926 10853326.666667 
6623.3237428935 11566366.666667 
6689.5569803225     11330250 
6756.4525501257 11088666.666667 
6824.0170756269     10851450 
6892.2572463832     10621600 
6961.179818847     10395975 
7030.7916170355 10177733.333333 
7101.0995332059    9961062.5 
7172.1105285379      9752740 
7243.8316338233      9550895 
7316.2699501615 9353353.3333333 
7389.4326496631      9157085 
7463.3269761598    8941997.5 
7537.9602459214    8735242.5 
7613.3398483806 8555396.6666667 
7689.4732468644    8380667.5 
7766.367979333      8183120 
7844.0316591264    7999032.5 
7922.4719757176    7814967.5 
8001.6966954748      7638085 
8081.7136624296    7464887.5 
8162.5307990539      7294580 
8244.1561070444      7139730 
8326.5976681148    6957162.5 
8409.863644796      6780850 
8493.9622812439      6564945 
8578.9019040564      6575160 
8664.6909230969      6342020 
8751.3378323279      6518005 
8838.8512106512      6161935 
8927.2397227577      6136578 
9016.5121199853      6033840 
9106.6772411851      6000058 
9197.744013597    5574747.5 
9289.721453733      5727760 
9382.6186682703      5573804 
9476.444854953      5219714 
9571.2093035025    5293337.5 
9666.9213965375      5183208 
9763.5906105029      5054218 
9861.226516608      4924786 
9959.838781774      4741228 
10059.437169592      4562690 
10160.031541288      4575985 
10261.631856701      4462890 
10364.248175268      4353960 
10467.89065702      4244600 
10572.56956359 4110453.3333333 
10678.295259226      3989635 
10785.078211819      3888310 
10892.928993937      3626380 
11001.858283876      3715000 
11111.876866715      3630485 
11222.995635382      3523550 
11335.225591736      3422715 
11448.577847653      3345490 
11563.06362613      3247480 
11678.694262391      3152810 
11795.481205015      3081705 
11913.436017065 2998313.3333333 
12032.570377236      2916555 
12152.896081008      2853880 
12274.425041818 2775536.6666667 
12397.169292236      2700435 
12521.140985159      2626880 
12646.35239501      2554990 
12772.81591896      2391340 
12900.54407815 2409506.6666667 
13029.549518932      2347110 
13159.845014121 2285893.3333333 
13291.443464262      2226735 
13424.357898905 2169346.6666667 
13558.601477894 2102836.6666667 
13694.187492673 2037826.6666667 
13831.129367599      1987025 
13969.440661275 1936903.3333333 
14109.135067888 1878603.3333333 
14250.226418567      1822450 
14392.728682753 1765473.3333333 
14536.65596958 1716147.3333333 
14682.022529276      1666480 
14828.842754569 1617226.6666667 
14977.131182115      1567050 
15126.902493936 1520683.3333333 
15278.171518875      1469210 
15430.953234064 1426813.3333333 
15585.262766404 1384433.3333333 
15741.115394068 1343513.3333333 
15898.526548009 1333604.2857143 
16057.511813489      1238320 
16218.086931624      1262610 
16380.26780094      1161850 
16544.07047895      1198045 
16709.511183739      1100365 
16876.606295577      1111150 
17045.372358532      1078100 
17215.826082118       993871 
17387.984342939       986515 
17561.864186368       961072 
17737.482828232     932408.5 
17914.857656514       894407 
18094.006233079       825182 
18274.94629541       826403 
18457.695758364       802416 
18642.272715948       748736 
18828.695443107       746758 
19016.982397539       721530 
19207.152221514       692711 
19399.223743729     643960.5 
19593.215981166       644245 
19789.148140978       620957 
19987.039622388     598646.5 
20186.910018612     577241.5 
20388.779118798       556878 
20592.666909986     537301.5 
20798.593579086       518641 
21006.579514877       500731 
21216.645310025       483583 
21428.811763126     466439.5 
21643.099880757 437183.33333333 
21859.530879564     429245.5 
22078.12618836       415106 
22298.907450244     401609.5 
22521.896524746     388550.5 
22747.115489993       373171 
22974.586644893       358537 
23204.332511342     347321.5 
23436.375836456 333892.66666667 
23670.73959482     321016.5 
23907.446990769     311070.5 
24146.521460676 299226.33333333 
24387.986675283       287918 
24631.866542036       277410 
24878.185207456       266314 
25126.967059531 256833.33333333 
25378.236730126       249524 
25632.019097427 238370.33333333 
25888.339288402       231842 
26147.222681286 216678.66666667 
26408.694908098 215153.33333333 
26672.781857179       202554 
26939.509675751       201049 
27208.904772509       192763 
27480.993820234 181492.33333333 
27755.803758436     178938.5 
28033.361796021 173030.66666667 
28313.695413981 166241.66666667 
28596.832368121 156619.66666667 
28882.800691802 153653.66666667 
29171.62869872       147806 
29463.344985707 142233.33333333 
29757.978435564 136917.33333333 
30055.55821992 130136.33333333 
30356.113802119 126232.66666667 
30659.67494014       122389 
30966.271689541       117972 
31275.934406437       113764 
31588.693750501       109742 
31904.580688006     106016.4 
32223.626494886     101615.5 
32545.862759835      98106.5 
32871.321387434     93197.55 
33200.034601308     90405.55 
33532.034947321      87384.7 
33867.355296794      84505.2 
34206.028849762     80839.95 
34548.08913826      78209.6 
34893.570029642     75689.95 
35242.505729939     72475.45 
35594.930787238     69447.65 
35950.880095111     66558.45 
36310.388896062      64385.5 
36673.492785022      62460.7 
37040.227712872     59789.85 
37410.629990001     57051.25 
37784.736289901     55294.75 
38162.5836528     53189.05 
38544.209489328        51214 
38929.651584221      48921.9 
39318.948100064        47378 
39712.137581064      45450.3 
40109.258956875     43147.05 
40510.351546444     42235.05 
40915.455061908     40689.95 
41324.609612527     38824.45 
41737.855708653     37780.15 
42155.234265739      36436.6 
42576.786608396     35143.95 
43002.55447448     33906.65 
43432.580019225      32425.7 
43866.905819417 31293.933333333 
44305.574877612      30008.1 
44748.630626388        29012 
45196.116932652     28039.65 
45648.078101978 26880.066666667 
46104.558882998      25481.2 
46565.604471828      24634.1 
47031.260516546 23934.733333333 
47501.573121712      22979.5 
47976.588852929     22251.85 
48456.354741458 21382.133333333 
48940.918288873     20547.95 
49430.327471761      19760.5 
49924.630746479      19001.2 
50423.877053944 18287.133333333 
50928.115824483      17433.3 
51437.396982728      16949.3 
51951.770952555     16343.15 
52471.288662081 15731.933333333 
52996.001548702      15074.3 
53525.961564189     14499.75 
54061.221179831      14025.8 
54601.833391629 13436.733333333 
55147.851725545     12931.55 
55699.330242801 12530.233333333 
56256.323545229      12021.6 
56818.886780681 11500.266666667 
57387.075648488 11079.066666667 
57960.946404973      10644.6 
58540.555869022 10168.216666667 
59125.961427713       9790.3 
59717.22104199      9461.19 
60314.39325241      9102.43 
60917.537184934 8760.5166666667 
61526.712556783      8434.59 
62141.979682351      8123.32 
62763.399479174 7785.2733333333 
63391.033473966 7543.5666666667 
64024.943808706 7216.8142857143 
64665.193246793      6971.97 
65311.845179261     6727.345 
65964.963631053     6416.805 
66624.613267364      6195.03 
67290.859400038     5959.545 
67963.767994038     5714.855 
68643.405673978      5523.41 
69329.839730718     5339.165 
70023.138128025      5107.22 
70723.369509305      4884.95 
71430.603204399       4728.9 
72144.909236443     4575.165 
72866.358328807     4385.545 
73595.021912095     4203.195 
74330.972131216     3979.265 
75074.281852528      3865.96 
75825.024671053      3748.22 
76583.274917764      3635.27 
77349.107666942     3485.985 
78122.598743611     3353.645 
78903.824731047      3223.04 
79692.862978358      3098.76 
80489.791608141       2980.4 
81294.689524223     2861.485 
82107.636419465     2760.165 
82928.712783659       2657.7 
83757.999911496       2559.9 
84595.579910611      2444.17 
85441.535709717     2334.455 
86295.951066814     2244.965 
87158.910577482     2163.425 
88030.499683257      2095.71 
88910.80468009      2022.96 
89799.912726891      1936.57 
90697.91185416     1854.465 
91604.890972701         1792 
92520.939882428 1717.6533333333 
93446.149281253      1641.68 
94380.610774065     1593.025 
95324.416881806      1528.68 
96277.661050624     1467.705 
97240.43766113 1409.7266666667 
98212.842037741      1353.85 
99194.970458119      1312.19 
100186.9201627      1281.55 
199060.83304441      83.6604 
399467.9878358      5.30414 
594753.39981818      1.04846 
793700.71765891      0.33101 
997811.18987739     0.135186 
1193529.3359837    0.0649965 
1399507.0114645    0.0349801 
