#  WAVELENGTH	        FLUX	
#  (ANGSTROM)	(ERG/CM2/S/A)	
############	############	
429.23803031605   1.2113E-24 
437.8657147254  7.63356E-24 
446.66681559138  3.74579E-23 
455.64481858477  1.47299E-22 
469.4513122327  6.32103E-22 
478.88728360858  2.54211E-21 
488.51291800911  9.63071E-21 
498.3320276611  3.44423E-20 
503.31534793771  9.57747E-20 
508.34850141708  2.21215E-19 
518.56630629557  5.60708E-19 
528.98948905211  1.73063E-18 
539.62217778206  5.02992E-18 
545.01839955988    1.419E-17 
555.97326939103   3.8252E-17 
567.14833210579  9.93182E-17 
578.54801358112   2.4614E-16 
584.33349371693  6.02898E-16 
596.07859694064  1.41462E-15 
608.05977673914  3.22007E-15 
614.14037450653  7.12121E-15 
626.48459603412  1.53226E-14 
639.0769364144  3.21354E-14 
645.46770577855  6.57472E-14 
651.92238283633  1.14586E-13 
658.44160666469  1.84095E-13 
671.67628295866  3.55668E-13 
678.39304578824  6.72779E-13 
692.02874600859   1.2472E-12 
698.94903346867  2.26785E-12 
712.99790904139  4.28592E-12 
720.12788813181  7.50422E-12 
734.60245868325  1.22477E-11 
741.94848327009  2.07905E-11 
749.36796810279  3.47462E-11 
764.43026426165  5.72088E-11 
772.07456690427  9.28553E-11 
779.79531257331  1.48644E-10 
787.59326569905  2.34779E-10 
803.4238903396  3.66274E-10 
811.45812924299   5.6441E-10 
819.57271053542  8.59595E-10 
827.76843764078   1.29468E-9 
844.40658323736    1.9288E-9 
852.85064906973   2.84342E-9 
861.37915556043    4.1494E-9 
869.99294711603    5.9957E-9 
878.69287658719   8.58438E-9 
887.47980535306   1.21787E-8 
896.3546034066   1.71258E-8 
914.37133093507  0.000232331 
923.51504424442  0.000866022 
932.75019468686   0.00112576 
942.07769663373   0.00170667 
951.49847360007   0.00249404 
961.01345833607   0.00321078 
970.62359291943   0.00354669 
980.32982884862   0.00621035 
990.13312713711   0.00806906 
1000.0344584085    0.0107861 
1010.0348029926    0.0119675 
1020.1351510225    0.0147307 
1030.3365025327    0.0246912 
1040.639867558    0.0334311 
1051.0462662336    0.0428745 
1061.556728896    0.0545685 
1072.1722961849    0.0705001 
1082.8940191468    0.0903883 
1093.7229593382     0.112024 
1104.6601889316    0.4111235 
1115.7067908209     0.707309 
1126.8638587291     0.921541 
1138.1324973164      1.02097 
1149.5138222896     0.993093 
1161.0089605125      1.05134 
1172.6190501176     0.973681 
1184.3452406188      1.43449 
1196.188693025     0.425397 
1208.1505799552     0.235288 
1220.2320857548     0.561071 
1232.4344066123       1.2636 
1244.7587506785      2.18239 
1257.2063381852      4.57333 
1269.7784015671      6.59106 
1282.4761855828     12.08275 
1295.3009474386      18.5093 
1308.253956913       24.932 
1321.3364964821      32.6663 
1334.5498614469      47.3573 
1347.8953600614      64.2155 
1361.374313662      81.4089 
1374.9880567986     108.7659 
1388.7379373666      142.548 
1402.6253167403      185.191 
1416.6515699077      233.148 
1430.8180856068 283.46052941176 
1445.1262664628 358.08430769231 
1459.5775291275      418.765 
1474.1733044187      523.196 
1488.9150374629      649.216 
1503.8041878376 787.61881818182 
1518.8422297159      924.239 
1534.0306520131     1100.695 
1549.3709585332      1281.48 
1564.8646681186      1448.56 
1580.5133147997      1888.96 
1596.3184479477      2160.18 
1612.2816324272       2514.6 
1628.4044487515      3061.78 
1644.688493239      3540.16 
1661.1353781714 5185.3927272727 
1677.7467319531      10638.9 
1694.5241992726      28058.5 
1711.4694412654      84914.5 
1728.584135678     155320.5 
1745.8699770348       213707 
1763.3286768051       210224 
1780.9619635732       306454 
1798.7715832089       336643 
1816.759299041       322106 
1834.9268920314     353828.5 
1853.2761609517       409780 
1871.8089225613       472227 
1890.5270117869     535186.5 
1909.4322819047     616767.5 
1928.5266047238     621850.5 
1947.811870771 817208.72727273 
1967.2899894787 865252.35294118 
1986.9628893735 867972.57142857 
2006.8325182673       857520 
2026.9008434499      1039461 
2047.1698518844      1078245 
2067.6415504033      1298418 
2088.3179659073      1264200 
2109.2011455664      1341375 
2130.293157022      1272140 
2151.5960885923      1368440 
2173.1120494782      1417570 
2194.843169973      1600660 
2216.7916016727      1713410 
2238.9595176894      1647355 
2261.3491128663      1676865 
2283.962603995 1823016.6666667 
2306.8022300349      1920480 
2329.8702523353      1544060 
2353.1689548586 1795766.6666667 
2376.7006444072      1439405 
2400.4676508513      1631150 
2424.4723273598      2221180 
2448.7170506334      2347105 
2473.2042211397 2176966.6666667 
2497.9362633511 2427873.4782609 
2522.9156259846 2053138.5185185 
2548.1447822445      2326105 
2573.6262300669      2567740 
2599.3624923676 2421446.6666667 
2625.3561172913      3202570 
2651.6096784642 3444376.6666667 
2678.1257752488      3413005 
2704.9070330013 3218963.3333333 
2731.9561033313 3030186.6666667 
2759.2756643647 3448096.6666667 
2786.8684210083      1790490 
2814.7371052184      3972470 
2842.8844762706 3732376.6666667 
2871.3133210333 3979586.6666667 
2900.0264542436      4432370 
2929.026718786      4357485 
2958.3169859739      4487410 
2987.9001558336      4579705 
3017.779157392      4696760 
3047.9569489659      4812225 
3078.4365184556      4951730 
3109.2208836401      4924915 
3140.3130924765      5155925 
3171.7162234013      4927870 
3203.4333856353      5017735 
3235.4677194916      5203080 
3267.8223966866      5445475 
3300.5006206534      5576570 
3333.50562686      5510730 
3366.8406831286      5500095 
3400.5090899598      5693045 
3434.5141808594      5736170 
3468.859322668      5737100 
3503.5479158947      5884090 
3538.5833950537      5990425 
3573.9692290042      5874520 
3609.7089212942      6037852 
3645.8060105072 6231126.6666667 
3682.2640706123      6893980 
3719.0867113184      9006200 
3756.2775784316     10519950 
3793.8403542159     11002750 
3831.778757758     12209100 
3870.0965453356     10357800 
3908.797510789     11501150 
3947.8854858969     11003315 
3987.3643407558     12671950 
4027.2379841634     12684350 
4067.510364005     12367450 
4108.1854676451     11670200 
4149.2673223215 12510733.333333 
4190.7599955447     12328100 
4232.6675955002     12310400 
4274.9942714552     11993550 
4317.7442141697     11068650 
4360.9216563114     12141150 
4404.5308728746     12038600 
4448.5761816033 12001333.333333 
4493.0619434193     11933250 
4537.9925628535     11822300 
4583.3724884821     11844700 
4629.2062133669 11777366.666667 
4675.4982755006     11657400 
4722.2532582556     11621800 
4769.4757908381 11502966.666667 
4817.1705487465     11087600 
4865.342254234 10655433.333333 
4913.9956767763     11034150 
4963.1356335441 10961633.333333 
5012.7669898795     10878900 
5062.8946597783 10795733.333333 
5113.5236063761     10620300 
5164.6588424398 10353066.666667 
5216.3054308642     10382150 
5268.4684851729 10260766.666667 
5321.1531700246     10137700 
5374.3647017249     10025370 
5428.1083487421 9929993.3333333 
5482.3894322295 9847543.3333333 
5537.2133265518 9713826.6666667 
5592.5854598173      9611105 
5648.5113144155 9508416.6666667 
5704.9964275597 9386953.3333333 
5762.0463918353      9261550 
5819.6668557536      9130470 
5877.8635243112      8972830 
5936.6421595543      8878110 
5996.0085811498      8750820 
6055.9686669613      8628300 
6116.5283536309 8474253.3333333 
6177.6936371672 8380576.6666667 
6239.4705735389 8254206.6666667 
6301.8652792743 8141843.3333333 
6364.883932067 8024833.3333333 
6428.5327713877      7874460 
6492.8180991016 7675676.6666667 
6557.7462800926 7261533.3333333 
6623.3237428935      7542980 
6689.5569803225    7417667.5 
6756.4525501257 7292843.3333333 
6824.0170756269    7169807.5 
6892.2572463832      7049660 
6961.179818847    6930057.5 
7030.7916170355 6814083.3333333 
7101.0995332059    6696307.5 
7172.1105285379      6581270 
7243.8316338233      6473050 
7316.2699501615      6364600 
7389.4326496631    6254097.5 
7463.3269761598      6135580 
7537.9602459214    6019957.5 
7613.3398483806 5916743.3333333 
7689.4732468644      5816850 
7766.367979333    5705412.5 
7844.0316591264    5598502.5 
7922.4719757176    5490017.5 
8001.6966954748      5386850 
8081.7136624296    5284877.5 
8162.5307990539    5180637.5 
8244.1561070444    5087597.5 
8326.5976681148      4976995 
8409.863644796      4877180 
8493.9622812439    4722842.5 
8578.9019040564      4723340 
8664.6909230969      4574540 
8751.3378323279    4599842.5 
8838.8512106512    4449162.5 
8927.2397227577      4386724 
9016.5121199853      4314255 
9106.6772411851      4256526 
9197.744013597    4083527.5 
9289.721453733      4086634 
9382.6186682703      3989880 
9476.444854953      3843346 
9571.2093035025    3824017.5 
9666.9213965375      3748432 
9763.5906105029      3667786 
9861.226516608      3586586 
9959.838781774      3500048 
10059.437169592      3396465 
10160.031541288      3365545 
10261.631856701      3292635 
10364.248175268      3223775 
10467.89065702      3153040 
10572.56956359 3065696.6666667 
10678.295259226      2987625 
10785.078211819      2923485 
10892.928993937      2806495 
11001.858283876      2811340 
11111.876866715      2753685 
11222.995635382 2683346.6666667 
11335.225591736      2616200 
11448.577847653      2565710 
11563.06362613 2499856.6666667 
11678.694262391      2437230 
11795.481205015      2387825 
11913.436017065 2332073.3333333 
12032.570377236      2278140 
12152.896081008      2236800 
12274.425041818 2183793.3333333 
12397.169292236      2133035 
12521.140985159 2083126.6666667 
12646.35239501      2035700 
12772.81591896      1946950 
12900.54407815      1935660 
13029.549518932      1892205 
13159.845014121 1850056.6666667 
13291.443464262      1809505 
13424.357898905 1770066.6666667 
13558.601477894 1723916.6666667 
13694.187492673 1678806.6666667 
13831.129367599      1643620 
13969.440661275 1608596.6666667 
14109.135067888      1567640 
14250.226418567 1528173.3333333 
14392.728682753      1487240 
14536.65596958 1452643.6666667 
14682.022529276 1416813.3333333 
14828.842754569 1380593.3333333 
14977.131182115      1343450 
15126.902493936 1311143.3333333 
15278.171518875 1273606.6666667 
15430.953234064 1242756.6666667 
15585.262766404      1210690 
15741.115394068 1177693.3333333 
15898.526548009 1167524.2857143 
16057.511813489      1098330 
16218.086931624      1108240 
16380.26780094      1034080 
16544.07047895      1048225 
16709.511183739     975855.5 
16876.606295577       973354 
17045.372358532       943441 
17215.826082118     881142.5 
17387.984342939       866580 
17561.864186368       842399 
17737.482828232       817630 
17914.857656514     785423.5 
18094.006233079       734391 
18274.94629541     725936.5 
18457.695758364       705019 
18642.272715948       665536 
18828.695443107     657692.5 
19016.982397539       634683 
19207.152221514       610556 
19399.223743729     573961.5 
19593.215981166       567284 
19789.148140978       547057 
19987.039622388     527643.5 
20186.910018612     508905.5 
20388.779118798       491180 
20592.666909986     474036.5 
20798.593579086     457727.5 
21006.579514877     442075.5 
21216.645310025       427077 
21428.811763126     412568.5 
21643.099880757 389495.33333333 
21859.530879564     379432.5 
22078.12618836       367054 
22298.907450244       355212 
22521.896524746     343716.5 
22747.115489993 330209.33333333 
22974.586644893     317321.5 
23204.332511342     307453.5 
23436.375836456       295632 
23670.73959482     284291.5 
23907.446990769     275573.5 
24146.521460676 265182.33333333 
24387.986675283       255253 
24631.866542036 245946.33333333 
24878.185207456       236449 
25126.967059531       228054 
25378.236730126       220986 
25632.019097427       211943 
25888.339288402       205698 
26147.222681286       194308 
26408.694908098       190490 
26672.781857179       181179 
26939.509675751       177820 
27208.904772509       170635 
27480.993820234 161961.66666667 
27755.803758436       158379 
28033.361796021 153181.33333333 
28313.695413981 147210.33333333 
28596.832368121 139956.66666667 
28882.800691802 136118.66666667 
29171.62869872       130965 
29463.344985707 126055.33333333 
29757.978435564 121369.66666667 
30055.55821992       115972 
30356.113802119       112329 
30659.67494014       108550 
30966.271689541 104641.66666667 
31275.934406437 100930.16666667 
31588.693750501      97377.6 
31904.580688006     94086.56 
32223.626494886     90195.85 
32545.862759835        87093 
32871.321387434     83359.35 
33200.034601308        80333 
33532.034947321      77652.2 
33867.355296794      75092.9 
34206.028849762     71850.65 
34548.08913826      69564.7 
34893.570029642     67339.85 
35242.505729939      64488.8 
35594.930787238      61809.1 
35950.880095111     59243.05 
36310.388896062      57324.5 
36673.492785022      55606.9 
37040.227712872      53324.5 
37410.629990001     50947.75 
37784.736289901      49190.2 
38162.5836528      47298.9 
38544.209489328        45498 
38929.651584221     43608.55 
39318.948100064      42085.3 
39712.137581064     40449.65 
40109.258956875     38628.25 
40510.351546444     37536.75 
40915.455061908      36161.1 
41324.609612527      34687.2 
41737.855708653      33587.7 
42155.234265739     32391.25 
42576.786608396     31244.55 
43002.55447448      30147.8 
43432.580019225     28967.45 
43866.905819417 27849.033333333 
44305.574877612      26678.6 
44748.630626388        25785 
45196.116932652      24921.4 
45648.078101978 23894.133333333 
46104.558882998     22788.35 
46565.604471828        22058 
47031.260516546      21281.9 
47501.573121712      20434.5 
47976.588852929     19788.65 
48456.354741458 19017.266666667 
48940.918288873     18280.35 
49430.327471761      17581.9 
49924.630746479     16911.15 
50423.877053944      16277.1 
50928.115824483     15601.25 
51437.396982728      15091.5 
51951.770952555        14543 
52471.288662081      14012.3 
52996.001548702 13417.033333333 
53525.961564189     12927.35 
54061.221179831      12485.3 
54601.833391629 11964.733333333 
55147.851725545      11535.4 
55699.330242801      11156.6 
56256.323545229 10704.466666667 
56818.886780681      10261.7 
57387.075648488      9866.64 
57960.946404973 9479.0966666667 
58540.555869022      9086.36 
59125.961427713      8743.32 
59717.22104199 8424.7166666667 
60314.39325241      8105.81 
60917.537184934      7801.75 
61526.712556783 7512.0566666667 
62141.979682351      7235.38 
62763.399479174      6957.61 
63391.033473966 6719.6966666667 
64024.943808706 6429.0357142857 
64665.193246793      6211.28 
65311.845179261     5993.675 
65964.963631053     5717.375 
66624.613267364      5520.11 
67290.859400038     5324.075 
67963.767994038     5093.185 
68643.405673978      4922.41 
69329.839730718     4759.235 
70023.138128025      4552.03 
70723.369509305     4355.355 
71430.603204399      4215.23 
72144.909236443      4080.01 
72866.358328807     3909.605 
73595.021912095     3747.195 
74330.972131216      3572.45 
75074.281852528     3446.985 
75825.024671053      3341.97 
76583.274917764     3241.385 
77349.107666942     3111.335 
78122.598743611     2990.505 
78903.824731047      2874.17 
79692.862978358     2763.435 
80489.791608141      2657.97 
81294.689524223     2555.625 
82107.636419465      2461.75 
82928.712783659      2370.44 
83757.999911496     2283.325 
84595.579910611 2180.1766666667 
85441.535709717     2082.385 
86295.951066814      2006.29 
87158.910577482      1934.57 
88030.499683257       1869.6 
88910.80468009     1804.775 
89799.912726891      1727.77 
90697.91185416      1654.58 
91604.890972701     1598.905 
92520.939882428 1532.6633333333 
93446.149281253      1468.01 
94380.610774065      1421.57 
95324.416881806 1364.3066666667 
96277.661050624     1309.795 
97240.43766113 1258.1033333333 
98212.842037741     1208.635 
99194.970458119     1171.125 
100186.9201627      1143.81 
199060.83304441      74.8291 
399467.9878358      4.75621 
594753.39981818      0.94172 
793700.71765891     0.297652 
997811.18987739     0.121661 
1193529.3359837     0.058524 
1399507.0114645    0.0315088 
