#  WAVELENGTH	        FLUX	
#  (ANGSTROM)	(ERG/CM2/S/A)	
############	############	
362.43892950602  4.71882E-24 
373.42119150899  2.87936E-23 
384.7362270329  1.93495E-22 
392.46942519626   1.1735E-21 
404.36164124913   6.4781E-21 
412.48931023824  2.79829E-20 
420.78034537403  9.71337E-20 
429.23803031605  3.20985E-19 
437.8657147254  1.54025E-18 
446.66681559138  5.96764E-18 
455.64481858477  1.91392E-17 
469.4513122327  6.60839E-17 
478.88728360858  2.15802E-16 
488.51291800911   6.6947E-16 
498.3320276611  1.97633E-15 
503.31534793771  4.90931E-15 
508.34850141708  1.01883E-14 
518.56630629557  2.24241E-14 
528.98948905211    5.839E-14 
539.62217778206  1.43961E-13 
545.01839955988  3.46791E-13 
555.97326939103  8.02523E-13 
567.14833210579  1.79831E-12 
578.54801358112  3.86495E-12 
584.33349371693   8.2544E-12 
596.07859694064  1.69602E-11 
608.05977673914  3.39512E-11 
614.14037450653  6.63081E-11 
626.48459603412  1.26488E-10 
639.0769364144    2.361E-10 
645.46770577855  4.31425E-10 
651.92238283633  6.88629E-10 
658.44160666469    1.0262E-9 
671.67628295866    1.7854E-9 
678.39304578824   3.05063E-9 
692.02874600859   5.12381E-9 
698.94903346867   8.46425E-9 
712.99790904139   1.44393E-8 
720.12788813181   2.30945E-8 
734.60245868325   3.48206E-8 
741.94848327009   5.42441E-8 
749.36796810279   8.33861E-8 
764.43026426165   1.26559E-7 
772.07456690427   1.89756E-7 
779.79531257331   2.81173E-7 
787.59326569905   4.11885E-7 
803.4238903396   5.97049E-7 
811.45812924299   8.56375E-7 
819.57271053542   1.21622E-6 
827.76843764078   1.71095E-6 
844.40658323736   2.38461E-6 
852.85064906973   3.29388E-6 
861.37915556043   4.51065E-6 
869.99294711603   6.12512E-6 
878.69287658719   8.25299E-6 
887.47980535306    1.1034E-5 
896.3546034066   1.46405E-5 
914.37133093507    0.0702366 
923.51504424442     0.448663 
932.75019468686     0.682723 
942.07769663373      1.05072 
951.49847360007      1.49618 
961.01345833607        1.866 
970.62359291943      1.66477 
980.32982884862      3.21027 
990.13312713711      3.89619 
1000.0344584085      4.89252 
1010.0348029926      4.90302 
1020.1351510225       4.7092 
1030.3365025327      7.80839 
1040.639867558      11.6173 
1051.0462662336      14.4234 
1061.556728896      17.5766 
1072.1722961849      21.7244 
1082.8940191468      26.5702 
1093.7229593382      31.1973 
1104.6601889316      76.3631 
1115.7067908209      111.603 
1126.8638587291      138.404 
1138.1324973164      152.807 
1149.5138222896      151.311 
1161.0089605125      160.446 
1172.6190501176      146.214 
1184.3452406188     164.1116 
1196.188693025      53.8181 
1208.1505799552      17.9652 
1220.2320857548      62.5991 
1232.4344066123      160.182 
1244.7587506785      183.867 
1257.2063381852      367.848 
1269.7784015671      519.666 
1282.4761855828     968.0785 
1295.3009474386      1438.55 
1308.253956913       1797.2 
1321.3364964821      2189.84 
1334.5498614469     2903.605 
1347.8953600614      3660.98 
1361.374313662      4382.94 
1374.9880567986      5441.97 
1388.7379373666      6717.96 
1402.6253167403     8281.255 
1416.6515699077       9964.5 
1430.8180856068 11763.411764706 
1445.1262664628 14017.276923077 
1459.5775291275      15554.6 
1474.1733044187     18613.45 
1488.9150374629      22271.5 
1503.8041878376 25840.704545455 
1518.8422297159      27987.2 
1534.0306520131      31515.2 
1549.3709585332      33875.6 
1564.8646681186      35426.2 
1580.5133147997      42202.5 
1596.3184479477      46264.6 
1612.2816324272      57832.7 
1628.4044487515       103341 
1644.688493239       340420 
1661.1353781714 1327310.9090909 
1677.7467319531      2449420 
1694.5241992726      3029215 
1711.4694412654      4001795 
1728.584135678      4711075 
1745.8699770348      5285910 
1763.3286768051      4935815 
1780.9619635732      5821610 
1798.7715832089      5940885 
1816.759299041      5687210 
1834.9268920314      5820860 
1853.2761609517      6104045 
1871.8089225613      6443245 
1890.5270117869      6644525 
1909.4322819047      7179145 
1928.5266047238      7237650 
1947.811870771 7897448.1818182 
1967.2899894787 7889098.8235294 
1986.9628893735 7738515.2380952 
2006.8325182673      7531040 
2026.9008434499      8292120 
2047.1698518844      8291600 
2067.6415504033    8958479.5 
2088.3179659073      8654810 
2109.2011455664      8893850 
2130.293157022      8415130 
2151.5960885923      8632975 
2173.1120494782      8657495 
2194.843169973      9098300 
2216.7916016727      9374270 
2238.9595176894      8943185 
2261.3491128663      8943755 
2283.962603995 9253803.3333333 
2306.8022300349      9406050 
2329.8702523353      8707110 
2353.1689548586 9218016.6666667 
2376.7006444072      8452620 
2400.4676508513      8782525 
2424.4723273598      9625070 
2448.7170506334      9665655 
2473.2042211397 9339523.3333333 
2497.9362633511 9819199.1304348 
2522.9156259846 8827091.1111111 
2548.1447822445      9588230 
2573.6262300669     10311500 
2599.3624923676 10044746.666667 
2625.3561172913     11099100 
2651.6096784642 11347333.333333 
2678.1257752488     11308300 
2704.9070330013 10862733.333333 
2731.9561033313     10541780 
2759.2756643647     11221000 
2786.8684210083      9002660 
2814.7371052184     11879700 
2842.8844762706     11320600 
2871.3133210333     11619800 
2900.0264542436     12338300 
2929.026718786     12039800 
2958.3169859739     12150200 
2987.9001558336     12268250 
3017.779157392     12389000 
3047.9569489659     12440200 
3078.4365184556     12578600 
3109.2208836401     12498250 
3140.3130924765     12736950 
3171.7162234013     12368700 
3203.4333856353     12450000 
3235.4677194916     12611800 
3267.8223966866     12874950 
3300.5006206534     12934100 
3333.50562686     12715700 
3366.8406831286     12728500 
3400.5090899598     12928450 
3434.5141808594     12874500 
3468.859322668     12854150 
3503.5479158947     13022750 
3538.5833950537     13018450 
3573.9692290042     12886700 
3609.7089212942     12978080 
3645.8060105072 13110166.666667 
3682.2640706123     13699400 
3719.0867113184     18297250 
3756.2775784316     22965350 
3793.8403542159     25063150 
3831.778757758     30094900 
3870.0965453356     21563000 
3908.797510789     30559050 
3947.8854858969     25914850 
3987.3643407558     31194150 
4027.2379841634     31705450 
4067.510364005     28937000 
4108.1854676451     26193800 
4149.2673223215 30411066.666667 
4190.7599955447     29752600 
4232.6675955002     29335300 
4274.9942714552     28490250 
4317.7442141697     22755500 
4360.9216563114     27862000 
4404.5308728746     27844950 
4448.5761816033 27493666.666667 
4493.0619434193     27001800 
4537.9925628535     26565650 
4583.3724884821     26332850 
4629.2062133669 25904533.333333 
4675.4982755006     25362950 
4722.2532582556     25107400 
4769.4757908381 24564666.666667 
4817.1705487465     22299600 
4865.342254234     21349300 
4913.9956767763     23170750 
4963.1356335441 22893766.666667 
5012.7669898795     22531500 
5062.8946597783     22157700 
5113.5236063761     21731800 
5164.6588424398 21158133.333333 
5216.3054308642     20936600 
5268.4684851729 20567866.666667 
5321.1531700246 20157133.333333 
5374.3647017249     19807650 
5428.1083487421 19480066.666667 
5482.3894322295     19111200 
5537.2133265518 18713866.666667 
5592.5854598173     18398050 
5648.5113144155 18086866.666667 
5704.9964275597 17721133.333333 
5762.0463918353 17362133.333333 
5819.6668557536 17007466.666667 
5877.8635243112 16622933.333333 
5936.6421595543 16326733.333333 
5996.0085811498 15996166.666667 
6055.9686669613 15677433.333333 
6116.5283536309 15345766.666667 
6177.6936371672 15055933.333333 
6239.4705735389 14752166.666667 
6301.8652792743 14462866.666667 
6364.883932067 14176833.333333 
6428.5327713877     13830525 
6492.8180991016     13064000 
6557.7462800926 12084433.333333 
6623.3237428935 12997566.666667 
6689.5569803225     12729350 
6756.4525501257 12444866.666667 
6824.0170756269     12167025 
6892.2572463832 11897166.666667 
6961.179818847     11633675 
7030.7916170355 11378633.333333 
7101.0995332059     11126275 
7172.1105285379 10883766.666667 
7243.8316338233     10648300 
7316.2699501615 10418233.333333 
7389.4326496631     10191900 
7463.3269761598      9942475 
7537.9602459214    9702242.5 
7613.3398483806      9495050 
7689.4732468644    9293957.5 
7766.367979333      9066010 
7844.0316591264      8853930 
7922.4719757176    8642797.5 
8001.6966954748      8439025 
8081.7136624296      8240560 
8162.5307990539    8046782.5 
8244.1561070444    7870737.5 
8326.5976681148      7671005 
8409.863644796      7460612 
8493.9622812439    7204222.5 
8578.9019040564      7173765 
8664.6909230969      6897306 
8751.3378323279    7123712.5 
8838.8512106512    6691042.5 
8927.2397227577      6692114 
9016.5121199853      6578430 
9106.6772411851      6563398 
9197.744013597    6029667.5 
9289.721453733      6263636 
9382.6186682703      6092406 
9476.444854953      5642764 
9571.2093035025    5769797.5 
9666.9213965375      5655044 
9763.5906105029      5509512 
9861.226516608      5364040 
9959.838781774 5131584.6666667 
10059.437169592      4928870 
10160.031541288      4973230 
10261.631856701      4846940 
10364.248175268      4724745 
10467.89065702      4603205 
10572.56956359 4454086.6666667 
10678.295259226      4319215 
10785.078211819      4200185 
10892.928993937      3873560 
11001.858283876      4008870 
11111.876866715      3918825 
11222.995635382      3800070 
11335.225591736      3688240 
11448.577847653      3602440 
11563.06362613      3494400 
11678.694262391      3389950 
11795.481205015      3311745 
11913.436017065      3219190 
12032.570377236      3128455 
12152.896081008      3059155 
12274.425041818      2972790 
12397.169292236      2890015 
12521.140985159      2809150 
12646.35239501      2727270 
12772.81591896      2529330 
12900.54407815 2568613.3333333 
13029.549518932      2501880 
13159.845014121      2434670 
13291.443464262      2369950 
13424.357898905 2307053.3333333 
13558.601477894      2234280 
13694.187492673      2163510 
13831.129367599      2107820 
13969.440661275 2053293.3333333 
14109.135067888 1989753.3333333 
14250.226418567 1928596.6666667 
14392.728682753      1867130 
14536.65596958      1813223 
14682.022529276      1759460 
14828.842754569 1706446.6666667 
14977.131182115      1653340 
15126.902493936      1603240 
15278.171518875 1548863.3333333 
15430.953234064 1500806.6666667 
15585.262766404 1453266.6666667 
15741.115394068 1407286.6666667 
15898.526548009 1392824.2857143 
16057.511813489      1291320 
16218.086931624      1317720 
16380.26780094      1207880 
16544.07047895      1252555 
16709.511183739      1143520 
16876.606295577      1161700 
17045.372358532      1128765 
17215.826082118    1033255.5 
17387.984342939      1030265 
17561.864186368      1005820 
17737.482828232     975661.5 
17914.857656514       934795 
18094.006233079       856008 
18274.94629541     863820.5 
18457.695758364       838478 
18642.272715948     777619.5 
18828.695443107       779343 
19016.982397539     754102.5 
19207.152221514       722783 
19399.223743729       667749 
19593.215981166       672911 
19789.148140978       648577 
19987.039622388       625163 
20186.910018612       602715 
20388.779118798     581360.5 
20592.666909986       560856 
20798.593579086       541307 
21006.579514877       522550 
21216.645310025       504599 
21428.811763126       486049 
21643.099880757 453770.66666667 
21859.530879564     447696.5 
22078.12618836       432905 
22298.907450244       418771 
22521.896524746     405118.5 
22747.115489993 389013.66666667 
22974.586644893     373698.5 
23204.332511342     361973.5 
23436.375836456       347952 
23670.73959482     334508.5 
23907.446990769     324153.5 
24146.521460676 311786.33333333 
24387.986675283       299960 
24631.866542036 288906.33333333 
24878.185207456     277457.5 
25126.967059531       267411 
25378.236730126       259504 
25632.019097427 248075.66666667 
25888.339288402       240908 
26147.222681286 224348.66666667 
26408.694908098       223461 
26672.781857179     210129.5 
26939.509675751 209132.66666667 
27208.904772509       200423 
27480.993820234 188137.33333333 
27755.803758436       186114 
28033.361796021 179953.33333333 
28313.695413981 172825.66666667 
28596.832368121       162169 
28882.800691802       159749 
29171.62869872       153657 
29463.344985707 147851.66666667 
29757.978435564 142314.33333333 
30055.55821992 134925.33333333 
30356.113802119 130908.33333333 
30659.67494014       127183 
30966.271689541 122583.66666667 
31275.934406437       118204 
31588.693750501       114015 
31904.580688006     110137.4 
32223.626494886     105556.5 
32545.862759835       101887 
32871.321387434        96457 
33200.034601308      93884.2 
33532.034947321      90748.4 
33867.355296794     87752.85 
34206.028849762      83939.3 
34548.08913826      81203.6 
34893.570029642      78585.5 
35242.505729939     75244.15 
35594.930787238     72091.85 
35950.880095111     69091.35 
36310.388896062      66851.3 
36673.492785022      64835.1 
37040.227712872      61945.2 
37410.629990001     59103.05 
37784.736289901     57374.15 
38162.5836528     55176.65 
38544.209489328      53127.1 
38929.651584221      50753.4 
39318.948100064      49157.1 
39712.137581064     47123.45 
40109.258956875        44649 
40510.351546444     43801.15 
40915.455061908      42211.4 
41324.609612527     40212.65 
41737.855708653     39176.85 
42155.234265739     37793.65 
42576.786608396     36450.85 
43002.55447448      35167.3 
43432.580019225      33580.2 
43866.905819417 32440.033333333 
44305.574877612     31119.95 
44748.630626388      30087.3 
45196.116932652     29076.95 
45648.078101978 27873.766666667 
46104.558882998      26348.5 
46565.604471828     25470.75 
47031.260516546 24816.066666667 
47501.573121712     23825.45 
47976.588852929        23070 
48456.354741458      22167.4 
48940.918288873     21306.65 
49430.327471761 20487.066666667 
49924.630746479      19700.1 
50423.877053944 18957.433333333 
50928.115824483      18022.7 
51437.396982728      17564.3 
51951.770952555      16939.1 
52471.288662081 16306.233333333 
52996.001548702      15623.8 
53525.961564189     15030.85 
54061.221179831 14536.066666667 
54601.833391629 13924.666666667 
55147.851725545     13402.85 
55699.330242801 12985.566666667 
56256.323545229 12457.466666667 
56818.886780681 11915.133333333 
57387.075648488 11480.333333333 
57960.946404973 11029.766666667 
58540.555869022 10518.433333333 
59125.961427713 10135.366666667 
59717.22104199 9803.0733333333 
60314.39325241      9431.17 
60917.537184934      9076.74 
61526.712556783      8738.82 
62141.979682351 8414.6333333333 
62763.399479174      8057.92 
63391.033473966      7815.24 
64024.943808706 7476.4728571429 
64665.193246793      7222.78 
65311.845179261     6969.185 
65964.963631053      6647.25 
66624.613267364      6417.42 
67290.859400038      6167.12 
67963.767994038      5920.24 
68643.405673978      5721.39 
69329.839730718     5531.305 
70023.138128025     5290.095 
70723.369509305      5060.09 
71430.603204399      4898.01 
72144.909236443     4739.045 
72866.358328807     4542.275 
73595.021912095     4353.285 
74330.972131216     4109.975 
75074.281852528     4003.055 
75825.024671053      3881.92 
76583.274917764      3764.87 
77349.107666942     3610.025 
78122.598743611     3473.065 
78903.824731047     3337.785 
79692.862978358     3209.055 
80489.791608141     3086.405 
81294.689524223     2962.795 
82107.636419465      2858.29 
82928.712783659     2752.125 
83757.999911496     2650.855 
84595.579910611      2530.94 
85441.535709717     2417.305 
86295.951066814      2323.71 
87158.910577482     2237.855 
88030.499683257         2170 
88910.80468009      2094.67 
89799.912726891 2005.1833333333 
90697.91185416     1920.145 
91604.890972701      1855.45 
92520.939882428      1778.48 
93446.149281253      1698.34 
94380.610774065      1649.43 
95324.416881806 1582.8533333333 
96277.661050624      1519.61 
97240.43766113 1459.5566666667 
98212.842037741      1401.78 
99194.970458119     1358.545 
100186.9201627      1326.81 
199060.83304441      86.5717 
399467.9878358      5.48731 
594753.39981818      1.08478 
793700.71765891     0.342549 
997811.18987739     0.139925 
1193529.3359837    0.0672881 
1399507.0114645    0.0362218 
