#  WAVELENGTH	        FLUX	
#  (ANGSTROM)	(ERG/CM2/S/A)	
############	############	
355.29745074603  2.69457E-24 
362.43892950602  1.75338E-23 
373.42119150899  1.03671E-22 
384.7362270329  6.73859E-22 
392.46942519626  3.95963E-21 
404.36164124913   2.1211E-20 
412.48931023824  8.92899E-20 
420.78034537403   3.0321E-19 
429.23803031605  9.80966E-19 
437.8657147254  4.57777E-18 
446.66681559138  1.73127E-17 
455.64481858477  5.43785E-17 
469.4513122327  1.83641E-16 
478.88728360858  5.87039E-16 
488.51291800911  1.78433E-15 
498.3320276611  5.16512E-15 
503.31534793771  1.26808E-14 
508.34850141708  2.60218E-14 
518.56630629557  5.64524E-14 
528.98948905211  1.44469E-13 
539.62217778206   3.5026E-13 
545.01839955988  8.30215E-13 
555.97326939103  1.89158E-12 
567.14833210579  4.17545E-12 
578.54801358112  8.84409E-12 
584.33349371693  1.86255E-11 
596.07859694064  3.77535E-11 
608.05977673914  7.45938E-11 
614.14037450653  1.43842E-10 
626.48459603412  2.71058E-10 
639.0769364144   4.9994E-10 
645.46770577855  9.03083E-10 
651.92238283633   1.42856E-9 
658.44160666469   2.11245E-9 
671.67628295866   3.63636E-9 
678.39304578824    6.1494E-9 
692.02874600859   1.02242E-8 
698.94903346867   1.67261E-8 
712.99790904139   2.82355E-8 
720.12788813181   4.47458E-8 
734.60245868325   6.69221E-8 
741.94848327009   1.03342E-7 
749.36796810279   1.57513E-7 
764.43026426165   2.37088E-7 
772.07456690427   3.52604E-7 
779.79531257331   5.18383E-7 
787.59326569905   7.53549E-7 
803.4238903396   1.08416E-6 
811.45812924299   1.54373E-6 
819.57271053542   2.17683E-6 
827.76843764078   3.04103E-6 
844.40658323736   4.20969E-6 
852.85064906973   5.77649E-6 
861.37915556043   7.85912E-6 
869.99294711603   1.06048E-5 
878.69287658719   1.42005E-5 
887.47980535306   1.88707E-5 
896.3546034066   2.48906E-5 
914.37133093507     0.079371 
923.51504424442     0.552266 
932.75019468686     0.869878 
942.07769663373      1.36686 
951.49847360007      1.93007 
961.01345833607      2.45297 
970.62359291943       2.2174 
980.32982884862      4.14772 
990.13312713711      5.05642 
1000.0344584085      6.36061 
1010.0348029926      6.54747 
1020.1351510225      6.01872 
1030.3365025327      10.3011 
1040.639867558      14.9809 
1051.0462662336      18.2837 
1061.556728896      22.4004 
1072.1722961849      27.6207 
1082.8940191468      33.8514 
1093.7229593382      39.6547 
1104.6601889316     84.68625 
1115.7067908209      120.116 
1126.8638587291      150.829 
1138.1324973164      169.839 
1149.5138222896      173.905 
1161.0089605125      189.203 
1172.6190501176      176.847 
1184.3452406188      190.132 
1196.188693025      75.1841 
1208.1505799552      25.4543 
1220.2320857548       87.114 
1232.4344066123      218.627 
1244.7587506785      227.133 
1257.2063381852      471.813 
1269.7784015671      678.919 
1282.4761855828      1256.28 
1295.3009474386      1672.52 
1308.253956913       2048.5 
1321.3364964821      2462.36 
1334.5498614469     3188.145 
1347.8953600614      3951.92 
1361.374313662      4689.86 
1374.9880567986      5708.06 
1388.7379373666      6929.94 
1402.6253167403      8353.85 
1416.6515699077      9836.88 
1430.8180856068 11429.935294118 
1445.1262664628 13389.369230769 
1459.5775291275      14779.2 
1474.1733044187      17430.7 
1488.9150374629      20425.8 
1503.8041878376      23561.1 
1518.8422297159      25997.9 
1534.0306520131     29092.75 
1549.3709585332      31565.1 
1564.8646681186      33346.2 
1580.5133147997        39514 
1596.3184479477      43345.5 
1612.2816324272      51953.6 
1628.4044487515        71350 
1644.688493239       190582 
1661.1353781714 1036311.1363636 
1677.7467319531      2260340 
1694.5241992726      3124465 
1711.4694412654      4458455 
1728.584135678      5401165 
1745.8699770348      6091120 
1763.3286768051      5693375 
1780.9619635732      6737520 
1798.7715832089      6861485 
1816.759299041      6573340 
1834.9268920314      6714285 
1853.2761609517      7059125 
1871.8089225613      7424555 
1890.5270117869      7683665 
1909.4322819047      8291660 
1928.5266047238      8338490 
1947.811870771 9091919.0909091 
1967.2899894787 9078244.7058824 
1986.9628893735 8913827.1428571 
2006.8325182673      8677840 
2026.9008434499      9571835 
2047.1698518844      9594600 
2067.6415504033     10328845 
2088.3179659073      9977700 
2109.2011455664     10268500 
2130.293157022      9800540 
2151.5960885923      9977560 
2173.1120494782     10015225 
2194.843169973     10532500 
2216.7916016727     10886500 
2238.9595176894     10411950 
2261.3491128663     10342900 
2283.962603995     10694800 
2306.8022300349     10902200 
2329.8702523353     10171110 
2353.1689548586 10736066.666667 
2376.7006444072      9899680 
2400.4676508513     10268000 
2424.4723273598     11142600 
2448.7170506334     11198600 
2473.2042211397 10773566.666667 
2497.9362633511 11307730.434783 
2522.9156259846 10158633.333333 
2548.1447822445     11041400 
2573.6262300669 11906633.333333 
2599.3624923676     11617600 
2625.3561172913     12750750 
2651.6096784642 13026433.333333 
2678.1257752488     13007800 
2704.9070330013 12462566.666667 
2731.9561033313 12089766.666667 
2759.2756643647     12848300 
2786.8684210083     10353620 
2814.7371052184 13567166.666667 
2842.8844762706     12876100 
2871.3133210333     13263400 
2900.0264542436     14028500 
2929.026718786     13664750 
2958.3169859739     13752200 
2987.9001558336     13841000 
3017.779157392     13957300 
3047.9569489659     14028350 
3078.4365184556     14137500 
3109.2208836401     14068250 
3140.3130924765     14308400 
3171.7162234013     13877400 
3203.4333856353     13926000 
3235.4677194916     14104100 
3267.8223966866     14399800 
3300.5006206534     14432000 
3333.50562686     14180300 
3366.8406831286     14163350 
3400.5090899598     14337000 
3434.5141808594     14253900 
3468.859322668     14241300 
3503.5479158947     14384700 
3538.5833950537     14359350 
3573.9692290042     14191900 
3609.7089212942     14281940 
3645.8060105072 14459066.666667 
3682.2640706123     14476350 
3719.0867113184     17730750 
3756.2775784316     21760800 
3793.8403542159     23610800 
3831.778757758     28146100 
3870.0965453356     20554700 
3908.797510789     28637850 
3947.8854858969     24478450 
3987.3643407558     29280100 
4027.2379841634     29802300 
4067.510364005     27281800 
4108.1854676451     24810150 
4149.2673223215 28711633.333333 
4190.7599955447     28113050 
4232.6675955002     27766950 
4274.9942714552     27000650 
4317.7442141697     21767900 
4360.9216563114     26442150 
4404.5308728746     26469100 
4448.5761816033     26171200 
4493.0619434193     25753350 
4537.9925628535     25376300 
4583.3724884821     25150750 
4629.2062133669 24765033.333333 
4675.4982755006     24286750 
4722.2532582556     24047650 
4769.4757908381     23546000 
4817.1705487465     21434700 
4865.342254234 20562166.666667 
4913.9956767763     22278500 
4963.1356335441     22041900 
5012.7669898795     21711350 
5062.8946597783 21370533.333333 
5113.5236063761     20980250 
5164.6588424398 20447133.333333 
5216.3054308642     20254750 
5268.4684851729 19915333.333333 
5321.1531700246 19531466.666667 
5374.3647017249     19206250 
5428.1083487421 18902533.333333 
5482.3894322295 18563933.333333 
5537.2133265518 18191666.666667 
5592.5854598173     17898300 
5648.5113144155 17610233.333333 
5704.9964275597     17268600 
5762.0463918353     16932800 
5819.6668557536 16600466.666667 
5877.8635243112 16236433.333333 
5936.6421595543 15959566.666667 
5996.0085811498     15647300 
6055.9686669613 15345266.666667 
6116.5283536309 15031033.333333 
6177.6936371672 14756633.333333 
6239.4705735389     14469100 
6301.8652792743 14194566.666667 
6364.883932067     13922200 
6428.5327713877     13589000 
6492.8180991016 12838933.333333 
6557.7462800926 11903933.333333 
6623.3237428935     12789400 
6689.5569803225     12539125 
6756.4525501257 12265866.666667 
6824.0170756269     11999300 
6892.2572463832 11739733.333333 
6961.179818847     11486450 
7030.7916170355     11240500 
7101.0995332059     10997350 
7172.1105285379     10763000 
7243.8316338233     10535800 
7316.2699501615 10313166.666667 
7389.4326496631     10093700 
7463.3269761598      9852560 
7537.9602459214      9619455 
7613.3398483806      9418020 
7689.4732468644    9222837.5 
7766.367979333    9001912.5 
7844.0316591264      8794615 
7922.4719757176    8588537.5 
8001.6966954748      8390065 
8081.7136624296      8196410 
8162.5307990539      8006430 
8244.1561070444    7833222.5 
8326.5976681148      7645645 
8409.863644796      7439978 
8493.9622812439      7182045 
8578.9019040564    7100567.5 
8664.6909230969      6811776 
8751.3378323279      6977570 
8838.8512106512      6579965 
8927.2397227577      6565444 
9016.5121199853      6456270 
9106.6772411851      6432258 
9197.744013597      5932410 
9289.721453733      6145206 
9382.6186682703      5981736 
9476.444854953      5552190 
9571.2093035025    5669857.5 
9666.9213965375      5560582 
9763.5906105029      5419698 
9861.226516608      5279574 
9959.838781774      5053364 
10059.437169592      4858180 
10160.031541288      4901520 
10261.631856701      4779650 
10364.248175268      4661515 
10467.89065702      4544270 
10572.56956359 4400123.3333333 
10678.295259226      4269180 
10785.078211819      4150745 
10892.928993937      3831795 
11001.858283876      3966435 
11111.876866715      3880050 
11222.995635382 3765183.3333333 
11335.225591736      3656205 
11448.577847653      3572670 
11563.06362613      3468000 
11678.694262391      3366745 
11795.481205015      3290295 
11913.436017065 3199646.6666667 
12032.570377236      3111335 
12152.896081008      3043835 
12274.425041818 2959646.6666667 
12397.169292236      2879075 
12521.140985159 2800246.6666667 
12646.35239501      2718040 
12772.81591896      2517110 
12900.54407815 2564353.3333333 
13029.549518932      2500125 
13159.845014121      2434520 
13291.443464262      2371110 
13424.357898905 2309816.6666667 
13558.601477894 2238536.6666667 
13694.187492673 2169333.3333333 
13831.129367599      2114740 
13969.440661275 2061146.6666667 
14109.135067888 1998816.6666667 
14250.226418567 1938813.3333333 
14392.728682753 1878636.6666667 
14536.65596958 1825158.3333333 
14682.022529276 1772116.6666667 
14828.842754569 1719753.3333333 
14977.131182115 1668013.3333333 
15126.902493936 1619353.3333333 
15278.171518875 1567333.3333333 
15430.953234064 1518496.6666667 
15585.262766404      1469930 
15741.115394068 1421733.3333333 
15898.526548009 1398981.4285714 
16057.511813489      1304170 
16218.086931624      1321655 
16380.26780094      1215010 
16544.07047895      1257400 
16709.511183739      1146175 
16876.606295577      1166040 
17045.372358532      1133735 
17215.826082118      1035337 
17387.984342939      1033505 
17561.864186368      1010890 
17737.482828232     980547.5 
17914.857656514     938635.5 
18094.006233079       856419 
18274.94629541       867490 
18457.695758364       841829 
18642.272715948       778345 
18828.695443107     781849.5 
19016.982397539       757670 
19207.152221514       725174 
19399.223743729       668068 
19593.215981166     675829.5 
19789.148140978     651543.5 
19987.039622388     628006.5 
20186.910018612       605425 
20388.779118798       583946 
20592.666909986       563319 
20798.593579086     543652.5 
21006.579514877       524797 
21216.645310025     506746.5 
21428.811763126       487500 
21643.099880757 454316.33333333 
21859.530879564     449514.5 
22078.12618836       434653 
22298.907450244     420433.5 
22521.896524746     406710.5 
22747.115489993 390503.66666667 
22974.586644893     375083.5 
23204.332511342       363283 
23436.375836456       349192 
23670.73959482       335694 
23907.446990769     325345.5 
24146.521460676 312947.33333333 
24387.986675283       301081 
24631.866542036       289896 
24878.185207456       278681 
25126.967059531 268466.66666667 
25378.236730126     259877.5 
25632.019097427 249060.66666667 
25888.339288402     241141.5 
26147.222681286 224776.66666667 
26408.694908098       223520 
26672.781857179       211016 
26939.509675751 209235.66666667 
27208.904772509 200500.66666667 
27480.993820234 188413.66666667 
27755.803758436     186220.5 
28033.361796021 180054.66666667 
28313.695413981       172883 
28596.832368121       162233 
28882.800691802 159818.66666667 
29171.62869872       153728 
29463.344985707 147914.66666667 
29757.978435564 142371.66666667 
30055.55821992 134921.66666667 
30356.113802119       130877 
30659.67494014       127225 
30966.271689541       122621 
31275.934406437       118237 
31588.693750501 114043.33333333 
31904.580688006       110161 
32223.626494886       105578 
32545.862759835       101883 
32871.321387434     96417.15 
33200.034601308      93916.3 
33532.034947321      90781.7 
33867.355296794      87777.3 
34206.028849762     83960.15 
34548.08913826      81219.5 
34893.570029642     78599.45 
35242.505729939      75259.3 
35594.930787238     72099.35 
35950.880095111     69095.75 
36310.388896062      66890.9 
36673.492785022      64850.2 
37040.227712872      61889.5 
37410.629990001     59113.65 
37784.736289901      57393.5 
38162.5836528      55161.5 
38544.209489328     53079.75 
38929.651584221     50802.85 
39318.948100064     49104.05 
39712.137581064     47101.15 
40109.258956875      44655.1 
40510.351546444     43749.15 
40915.455061908      42163.7 
41324.609612527      40236.2 
41737.855708653     39130.85 
42155.234265739      37749.7 
42576.786608396      36407.7 
43002.55447448     35125.95 
43432.580019225     33576.15 
43866.905819417 32399.333333333 
44305.574877612     31075.45 
44748.630626388      30038.9 
45196.116932652      29029.4 
45648.078101978 27827.833333333 
46104.558882998      26311.8 
46565.604471828      25453.6 
47031.260516546 24775.633333333 
47501.573121712     23785.85 
47976.588852929     23031.85 
48456.354741458 22131.366666667 
48940.918288873      21270.9 
49430.327471761      20455.5 
49924.630746479     19676.15 
50423.877053944        18932 
50928.115824483      18000.4 
51437.396982728 17542.666666667 
51951.770952555     16910.75 
52471.288662081 16289.066666667 
52996.001548702 15597.266666667 
53525.961564189      15020.4 
54061.221179831 14511.366666667 
54601.833391629 13902.166666667 
55147.851725545      13396.2 
55699.330242801 12963.866666667 
56256.323545229      12436.6 
56818.886780681 11908.166666667 
57387.075648488      11461.1 
57960.946404973 11010.633333333 
58540.555869022 10500.333333333 
59125.961427713      10131.2 
59717.22104199 9784.7766666667 
60314.39325241 9413.5833333333 
60917.537184934      9059.78 
61526.712556783 8722.5933333333 
62141.979682351 8399.5833333333 
62763.399479174 8052.4966666667 
63391.033473966      7800.75 
64024.943808706 7462.6914285714 
64665.193246793      7209.41 
65311.845179261     6956.325 
65964.963631053     6635.035 
66624.613267364      6405.67 
67290.859400038     6159.595 
67963.767994038     5909.435 
68643.405673978      5710.93 
69329.839730718      5521.47 
70023.138128025      5280.47 
70723.369509305       5052.4 
71430.603204399      4889.17 
72144.909236443      4732.09 
72866.358328807     4534.075 
73595.021912095     4345.415 
74330.972131216      4105.96 
75074.281852528      3995.89 
75825.024671053      3874.91 
76583.274917764      3758.06 
77349.107666942     3605.605 
78122.598743611     3466.815 
78903.824731047      3331.82 
79692.862978358      3203.25 
80489.791608141      3080.88 
81294.689524223     2959.745 
82107.636419465      2853.16 
82928.712783659       2747.2 
83757.999911496     2646.105 
84595.579910611 2526.4266666667 
85441.535709717     2413.005 
86295.951066814      2321.52 
87158.910577482     2234.415 
88030.499683257     2166.165 
88910.80468009      2090.98 
89799.912726891      2001.65 
90697.91185416      1916.75 
91604.890972701     1852.195 
92520.939882428 1775.3866666667 
93446.149281253     1696.835 
94380.610774065     1646.555 
95324.416881806 1580.2166666667 
96277.661050624      1516.98 
97240.43766113 1457.0366666667 
98212.842037741     1399.855 
99194.970458119     1356.225 
100186.9201627      1324.52 
199060.83304441      86.4802 
399467.9878358      5.48755 
594753.39981818      1.08572 
793700.71765891     0.343082 
997811.18987739     0.140223 
1193529.3359837    0.0674635 
1399507.0114645    0.0363294 
