#  WAVELENGTH	        FLUX	
#  (ANGSTROM)	(ERG/CM2/S/A)	
############	############	
508.34850141708  7.46909E-25 
518.56630629557   2.3136E-24 
528.98948905211  9.09462E-24 
539.62217778206  3.33864E-23 
545.01839955988  1.17937E-22 
555.97326939103  3.94944E-22 
567.14833210579  1.26423E-21 
578.54801358112  3.83527E-21 
584.33349371693  1.14177E-20 
596.07859694064  3.23506E-20 
608.05977673914  8.84247E-20 
614.14037450653   2.3331E-19 
626.48459603412  5.95649E-19 
639.0769364144  1.47445E-18 
645.46770577855  3.54226E-18 
651.92238283633  6.99506E-18 
658.44160666469  1.24965E-17 
671.67628295866  2.80234E-17 
678.39304578824  6.12812E-17 
692.02874600859  1.30726E-16 
698.94903346867   2.7177E-16 
712.99790904139  5.95502E-16 
720.12788813181  1.18571E-15 
734.60245868325  2.16593E-15 
741.94848327009  4.15234E-15 
749.36796810279  7.81319E-15 
764.43026426165  1.44499E-14 
772.07456690427  2.62383E-14 
779.79531257331  4.69058E-14 
787.59326569905  8.19177E-14 
803.4238903396  1.42443E-13 
811.45812924299  2.43544E-13 
819.57271053542  4.09723E-13 
827.76843764078  6.80058E-13 
844.40658323736  1.11374E-12 
852.85064906973  1.80144E-12 
861.37915556043  2.87714E-12 
869.99294711603  4.53529E-12 
878.69287658719  7.08703E-12 
887.47980535306  1.09404E-11 
896.3546034066  1.67035E-11 
914.37133093507   2.92902E-8 
923.51504424442    1.0819E-7 
932.75019468686   1.61116E-7 
942.07769663373   2.46108E-7 
951.49847360007   3.86301E-7 
961.01345833607   5.81627E-7 
970.62359291943   8.43994E-7 
980.32982884862   1.23026E-6 
990.13312713711   1.77318E-6 
1000.0344584085   2.64757E-6 
1010.0348029926   3.76392E-6 
1020.1351510225   5.22484E-6 
1030.3365025327    7.5798E-6 
1040.639867558   1.06503E-5 
1051.0462662336   1.46363E-5 
1061.556728896   2.02198E-5 
1072.1722961849   2.78708E-5 
1082.8940191468   3.80883E-5 
1093.7229593382   5.09659E-5 
1104.6601889316 0.0001284613 
1115.7067908209  0.000226114 
1126.8638587291  0.000318059 
1138.1324973164  0.000418705 
1149.5138222896  0.000517754 
1161.0089605125  0.000700318 
1172.6190501176  0.000894521 
1184.3452406188   0.00110239 
1196.188693025   0.00132756 
1208.1505799552  0.000942398 
1220.2320857548   0.00200847 
1232.4344066123   0.00304526 
1244.7587506785   0.00435735 
1257.2063381852   0.00556754 
1269.7784015671   0.00687472 
1282.4761855828  0.009395945 
1295.3009474386    0.0117442 
1308.253956913    0.0148906 
1321.3364964821    0.0172876 
1334.5498614469   0.02307845 
1347.8953600614    0.0304787 
1361.374313662    0.0357254 
1374.9880567986   0.04637745 
1388.7379373666     0.059763 
1402.6253167403   0.07826155 
1416.6515699077    0.0996264 
1430.8180856068 0.12715964705882 
1445.1262664628 0.15761553846154 
1459.5775291275     0.199913 
1474.1733044187     0.243273 
1488.9150374629     0.320328 
1503.8041878376 0.39665490909091 
1518.8422297159     0.536853 
1534.0306520131     1.873805 
1549.3709585332      3.48137 
1564.8646681186     5.208565 
1580.5133147997     9.674505 
1596.3184479477      11.6136 
1612.2816324272      14.0071 
1628.4044487515      17.8851 
1644.688493239      21.7231 
1661.1353781714     30.90605 
1677.7467319531      89.8733 
1694.5241992726      181.613 
1711.4694412654      226.003 
1728.584135678     378.2765 
1745.8699770348      609.808 
1763.3286768051     599.0135 
1780.9619635732      888.703 
1798.7715832089     1043.615 
1816.759299041      1312.77 
1834.9268920314      1238.72 
1853.2761609517      1675.86 
1871.8089225613     2117.555 
1890.5270117869     2833.385 
1909.4322819047      3194.11 
1928.5266047238     3281.645 
1947.811870771 5221.5272727273 
1967.2899894787 5885.3852941176 
1986.9628893735 6627.9252380952 
2006.8325182673       6817.1 
2026.9008434499     9033.635 
2047.1698518844      10057.7 
2067.6415504033     12444.65 
2088.3179659073     32552.55 
2109.2011455664     45829.45 
2130.293157022      52684.6 
2151.5960885923     58768.75 
2173.1120494782     68180.45 
2194.843169973 67875.033333333 
2216.7916016727        88937 
2238.9595176894     88478.55 
2261.3491128663        73035 
2283.962603995     108994.9 
2306.8022300349      90916.1 
2329.8702523353     54890.95 
2353.1689548586 70385.166666667 
2376.7006444072      45564.3 
2400.4676508513     59225.95 
2424.4723273598       144918 
2448.7170506334     165406.5 
2473.2042211397      90782.5 
2497.9362633511 97934.434782609 
2522.9156259846 82331.422222222 
2548.1447822445       275654 
2573.6262300669 259506.33333333 
2599.3624923676 170792.66666667 
2625.3561172913       682515 
2651.6096784642       899565 
2678.1257752488     810974.5 
2704.9070330013 604563.66666667 
2731.9561033313 367366.33333333 
2759.2756643647       452305 
2786.8684210083    110221.55 
2814.7371052184 668763.66666667 
2842.8844762706 431443.33333333 
2871.3133210333 1129963.3333333 
2900.0264542436      1752340 
2929.026718786      1529870 
2958.3169859739      1607650 
2987.9001558336      1616000 
3017.779157392      1784940 
3047.9569489659      1890010 
3078.4365184556      1885370 
3109.2208836401      2024745 
3140.3130924765      1999125 
3171.7162234013      1847240 
3203.4333856353      1856340 
3235.4677194916      2417350 
3267.8223966866      2817160 
3300.5006206534      2619435 
3333.50562686      2535580 
3366.8406831286      2085265 
3400.5090899598      2433050 
3434.5141808594      2705400 
3468.859322668      2895285 
3503.5479158947      3031925 
3538.5833950537      2847375 
3573.9692290042      2463610 
3609.7089212942      2999420 
3645.8060105072 3541126.6666667 
3682.2640706123      3598665 
3719.0867113184      3031695 
3756.2775784316      3766205 
3793.8403542159      2958675 
3831.778757758      2665630 
3870.0965453356      3535990 
3908.797510789      3110610 
3947.8854858969      3002595 
3987.3643407558      5298710 
4027.2379841634      5354890 
4067.510364005      5506050 
4108.1854676451      5702220 
4149.2673223215 5517943.3333333 
4190.7599955447      5542235 
4232.6675955002      5345810 
4274.9942714552      4232140 
4317.7442141697      5587475 
4360.9216563114      5709205 
4404.5308728746      6124295 
4448.5761816033      6583750 
4493.0619434193      7123505 
4537.9925628535      7188080 
4583.3724884821      7111075 
4629.2062133669 7195956.6666667 
4675.4982755006      7080740 
4722.2532582556      7384905 
4769.4757908381      7436550 
4817.1705487465      7269925 
4865.342254234      6890100 
4913.9956767763      7194165 
4963.1356335441 6901773.3333333 
5012.7669898795      6935010 
5062.8946597783 7058823.3333333 
5113.5236063761      6716555 
5164.6588424398      6399360 
5216.3054308642      6904265 
5268.4684851729      6814410 
5321.1531700246      6875780 
5374.3647017249      6816455 
5428.1083487421      6963020 
5482.3894322295 6866106.6666667 
5537.2133265518 6843543.3333333 
5592.5854598173      6905705 
5648.5113144155 6797033.3333333 
5704.9964275597 6885903.3333333 
5762.0463918353 6848516.6666667 
5819.6668557536      6891070 
5877.8635243112 6637613.3333333 
5936.6421595543 6737086.6666667 
5996.0085811498 6638206.6666667 
6055.9686669613 6539243.3333333 
6116.5283536309 6207253.3333333 
6177.6936371672 6355766.6666667 
6239.4705735389 6217023.3333333 
6301.8652792743 6147276.6666667 
6364.883932067 6111996.6666667 
6428.5327713877    6005657.5 
6492.8180991016 5985046.6666667 
6557.7462800926      5750410 
6623.3237428935 5868936.6666667 
6689.5569803225      5811515 
6756.4525501257 5715213.3333333 
6824.0170756269    5636337.5 
6892.2572463832 5554993.3333333 
6961.179818847      5434535 
7030.7916170355 5377773.3333333 
7101.0995332059    5257817.5 
7172.1105285379 5124103.3333333 
7243.8316338233      5099030 
7316.2699501615 5060126.6666667 
7389.4326496631      4910765 
7463.3269761598    4909332.5 
7537.9602459214      4842340 
7613.3398483806 4754056.6666667 
7689.4732468644    4679152.5 
7766.367979333      4642585 
7844.0316591264      4547650 
7922.4719757176      4428550 
8001.6966954748      4370150 
8081.7136624296      4293725 
8162.5307990539      4180530 
8244.1561070444    4151752.5 
8326.5976681148    4050607.5 
8409.863644796      3978174 
8493.9622812439      3697890 
8578.9019040564      3847075 
8664.6909230969      3652070 
8751.3378323279      3719375 
8838.8512106512    3660217.5 
8927.2397227577      3575374 
9016.5121199853      3527055 
9106.6772411851      3460636 
9197.744013597    3313132.5 
9289.721453733      3331690 
9382.6186682703      3223538 
9476.444854953      3177444 
9571.2093035025      3133460 
9666.9213965375      3080350 
9763.5906105029      3033570 
9861.226516608      2983574 
9959.838781774      2939974 
10059.437169592      2865295 
10160.031541288      2812760 
10261.631856701      2771085 
10364.248175268      2716535 
10467.89065702      2659955 
10572.56956359 2583836.6666667 
10678.295259226      2517945 
10785.078211819      2445600 
10892.928993937      2368120 
11001.858283876      2346445 
11111.876866715      2310130 
11222.995635382 2259363.3333333 
11335.225591736      2202425 
11448.577847653      2196985 
11563.06362613 2127013.3333333 
11678.694262391      2095940 
11795.481205015      2041480 
11913.436017065      2008610 
12032.570377236      1965020 
12152.896081008      1955705 
12274.425041818      1909590 
12397.169292236      1871815 
12521.140985159 1831223.3333333 
12646.35239501      1793935 
12772.81591896 1732776.6666667 
12900.54407815 1713603.3333333 
13029.549518932      1680310 
13159.845014121 1641973.3333333 
13291.443464262      1614305 
13424.357898905 1590883.3333333 
13558.601477894      1542410 
13694.187492673      1512430 
13831.129367599      1488390 
13969.440661275      1455780 
14109.135067888      1409650 
14250.226418567 1378863.3333333 
14392.728682753 1339856.6666667 
14536.65596958 1320546.6666667 
14682.022529276      1282500 
14828.842754569 1261053.3333333 
14977.131182115      1224850 
15126.902493936 1214423.3333333 
15278.171518875      1189020 
15430.953234064 1157586.6666667 
15585.262766404      1133490 
15741.115394068      1080610 
15898.526548009      1075330 
16057.511813489      1035350 
16218.086931624      1028640 
16380.26780094       978738 
16544.07047895       979605 
16709.511183739       919047 
16876.606295577       919472 
17045.372358532     882412.5 
17215.826082118       826228 
17387.984342939       810957 
17561.864186368       790556 
17737.482828232       767945 
17914.857656514     739282.5 
18094.006233079       694601 
18274.94629541     679383.5 
18457.695758364       662017 
18642.272715948     624761.5 
18828.695443107     610413.5 
19016.982397539       596707 
19207.152221514     572032.5 
19399.223743729       540815 
19593.215981166       530937 
19789.148140978     513736.5 
19987.039622388     499626.5 
20186.910018612       477075 
20388.779118798       464899 
20592.666909986       446583 
20798.593579086     430563.5 
21006.579514877     417987.5 
21216.645310025     403612.5 
21428.811763126     391031.5 
21643.099880757       368130 
21859.530879564     358364.5 
22078.12618836       347521 
22298.907450244       335997 
22521.896524746       324155 
22747.115489993 309741.66666667 
22974.586644893     297804.5 
23204.332511342       283179 
23436.375836456 273682.33333333 
23670.73959482     261014.5 
23907.446990769       256224 
24146.521460676 244127.66666667 
24387.986675283     234005.5 
24631.866542036 227008.33333333 
24878.185207456     220197.5 
25126.967059531 211960.33333333 
25378.236730126     204113.5 
25632.019097427 197156.33333333 
25888.339288402     191567.5 
26147.222681286 182573.66666667 
26408.694908098 176475.66666667 
26672.781857179       171555 
26939.509675751 166488.66666667 
27208.904772509       160105 
27480.993820234 152870.66666667 
27755.803758436     148841.5 
28033.361796021 144128.66666667 
28313.695413981 138593.66666667 
28596.832368121       132456 
28882.800691802 128297.33333333 
29171.62869872 123156.66666667 
29463.344985707       118840 
29757.978435564       114317 
30055.55821992 109647.33333333 
30356.113802119       105881 
30659.67494014       102193 
30966.271689541 98435.866666667 
31275.934406437      95054.8 
31588.693750501 91699.233333333 
31904.580688006     88686.96 
32223.626494886     84955.95 
32545.862759835        81995 
32871.321387434     78688.75 
33200.034601308      75536.6 
33532.034947321      73034.5 
33867.355296794      70442.4 
34206.028849762      67668.9 
34548.08913826      65469.3 
34893.570029642      63406.4 
35242.505729939      60652.2 
35594.930787238     58052.75 
35950.880095111      55799.2 
36310.388896062      53798.4 
36673.492785022      52039.3 
37040.227712872     49836.15 
37410.629990001     47667.45 
37784.736289901      46112.3 
38162.5836528      44465.5 
38544.209489328      42642.8 
38929.651584221      41097.5 
39318.948100064      39437.4 
39712.137581064        37805 
40109.258956875     36414.85 
40510.351546444     35176.15 
40915.455061908     33973.55 
41324.609612527     32659.55 
41737.855708653      31446.9 
42155.234265739      30426.7 
42576.786608396     29045.45 
43002.55447448     27546.85 
43432.580019225     26065.65 
43866.905819417 24765.566666667 
44305.574877612      23467.8 
44748.630626388      22776.7 
45196.116932652        21701 
45648.078101978 20879.466666667 
46104.558882998      20020.5 
46565.604471828     19491.05 
47031.260516546 18810.433333333 
47501.573121712     18087.25 
47976.588852929      17564.1 
48456.354741458 16923.433333333 
48940.918288873     16294.35 
49430.327471761 15703.133333333 
49924.630746479      15128.9 
50423.877053944 14581.666666667 
50928.115824483      14040.1 
51437.396982728 13603.966666667 
51951.770952555      13079.9 
52471.288662081 12677.033333333 
52996.001548702 12144.466666667 
53525.961564189     11742.75 
54061.221179831 11337.666666667 
54601.833391629      10884.3 
55147.851725545      10543.1 
55699.330242801      10202.4 
56256.323545229      9810.69 
56818.886780681 9429.0933333333 
57387.075648488 9081.0833333333 
57960.946404973      8735.81 
58540.555869022 8391.4066666667 
59125.961427713      8088.65 
59717.22104199 7802.6266666667 
60314.39325241 7505.3833333333 
60917.537184934 7230.0933333333 
61526.712556783 6984.4533333333 
62141.979682351 6719.0466666667 
62763.399479174 6483.8333333333 
63391.033473966 6259.7066666667 
64024.943808706 5992.6171428571 
64665.193246793      5788.63 
65311.845179261     5596.375 
65964.963631053     5340.125 
66624.613267364      5156.97 
67290.859400038      4979.16 
67963.767994038       4760.3 
68643.405673978      4600.53 
69329.839730718      4448.53 
70023.138128025     4253.665 
70723.369509305     4072.845 
71430.603204399      3940.83 
72144.909236443     3814.245 
72866.358328807     3654.515 
73595.021912095     3502.175 
74330.972131216      3349.16 
75074.281852528      3221.18 
75825.024671053      3123.45 
76583.274917764      3028.49 
77349.107666942     2909.205 
78122.598743611      2794.73 
78903.824731047     2685.515 
79692.862978358      2581.04 
80489.791608141     2482.015 
81294.689524223      2386.71 
82107.636419465     2298.845 
82928.712783659     2212.395 
83757.999911496      2131.31 
84595.579910611 2035.0733333333 
85441.535709717     1943.375 
86295.951066814      1874.36 
87158.910577482      1807.14 
88030.499683257     1743.335 
88910.80468009     1682.895 
89799.912726891 1610.8066666667 
90697.91185416      1541.75 
91604.890972701     1490.925 
92520.939882428 1428.9133333333 
93446.149281253     1369.935 
94380.610774065      1324.88 
95324.416881806 1271.2033333333 
96277.661050624     1220.335 
97240.43766113      1171.26 
98212.842037741     1125.985 
99194.970458119      1090.44 
100186.9201627      1065.27 
199060.83304441      68.8947 
399467.9878358      4.31755 
594753.39981818      0.84826 
793700.71765891     0.266778 
997811.18987739     0.108645 
1193529.3359837    0.0521171 
1399507.0114645    0.0279934 
