#  WAVELENGTH	        FLUX	
#  (ANGSTROM)	(ERG/CM2/S/A)	
############	############	
608.05977673914   3.0747E-25 
614.14037450653    1.007E-24 
626.48459603412  3.16923E-24 
639.0769364144  9.60865E-24 
645.46770577855  2.80938E-23 
651.92238283633  6.46472E-23 
658.44160666469  1.31652E-22 
671.67628295866  3.54169E-22 
678.39304578824  9.24113E-22 
692.02874600859  2.34052E-21 
698.94903346867  5.75284E-21 
712.99790904139  1.50543E-20 
720.12788813181  3.50772E-20 
734.60245868325  7.35505E-20 
741.94848327009  1.63718E-19 
749.36796810279  3.56318E-19 
764.43026426165  7.58964E-19 
772.07456690427  1.58212E-18 
779.79531257331  3.23437E-18 
787.59326569905  6.44887E-18 
803.4238903396  1.27304E-17 
811.45812924299  2.46414E-17 
819.57271053542  4.68177E-17 
827.76843764078  8.74845E-17 
844.40658323736  1.60849E-16 
852.85064906973   2.9101E-16 
861.37915556043  5.18503E-16 
869.99294711603  9.09516E-16 
878.69287658719  1.57671E-15 
887.47980535306  2.69558E-15 
896.3546034066     4.54E-15 
914.37133093507  5.50095E-11 
923.51504424442  3.07896E-10 
932.75019468686  4.87082E-10 
942.07769663373  6.21524E-10 
951.49847360007  8.68933E-10 
961.01345833607   1.57468E-9 
970.62359291943   1.49951E-9 
980.32982884862    2.8974E-9 
990.13312713711   4.30832E-9 
1000.0344584085   5.10589E-9 
1010.0348029926   6.93618E-9 
1020.1351510225   8.71772E-9 
1030.3365025327   1.76871E-8 
1040.639867558   2.36941E-8 
1051.0462662336   2.71148E-8 
1061.556728896   5.62294E-8 
1072.1722961849    7.0748E-8 
1082.8940191468    1.1791E-7 
1093.7229593382   1.45904E-7 
1104.6601889316  2.146395E-7 
1115.7067908209   4.47389E-7 
1126.8638587291   6.90308E-7 
1138.1324973164    1.0071E-6 
1149.5138222896   1.34457E-6 
1161.0089605125   1.63982E-6 
1172.6190501176   2.36144E-6 
1184.3452406188  3.120095E-6 
1196.188693025   3.07062E-6 
1208.1505799552   1.18157E-6 
1220.2320857548   4.69964E-6 
1232.4344066123   1.04723E-5 
1244.7587506785   1.69451E-5 
1257.2063381852    2.4524E-5 
1269.7784015671    3.0676E-5 
1282.4761855828  3.820345E-5 
1295.3009474386   5.28699E-5 
1308.253956913   6.59858E-5 
1321.3364964821   7.56346E-5 
1334.5498614469  9.857265E-5 
1347.8953600614  0.000142536 
1361.374313662   0.00016361 
1374.9880567986 0.0002096395 
1388.7379373666  0.000272051 
1402.6253167403 0.0003974375 
1416.6515699077  0.000521954 
1430.8180856068 0.00074108605882353 
1445.1262664628  0.000910741 
1459.5775291275   0.00126474 
1474.1733044187   0.00150032 
1488.9150374629   0.00223541 
1503.8041878376 0.0028228072727273 
1518.8422297159    0.0047473 
1534.0306520131   0.01628145 
1549.3709585332    0.0270673 
1564.8646681186    0.0388714 
1580.5133147997   0.05395365 
1596.3184479477    0.0544747 
1612.2816324272   0.05484745 
1628.4044487515    0.0730651 
1644.688493239     0.087835 
1661.1353781714 0.12513530454545 
1677.7467319531     0.228064 
1694.5241992726     0.327757 
1711.4694412654    0.4309305 
1728.584135678     0.684996 
1745.8699770348     0.811005 
1763.3286768051     0.939848 
1780.9619635732      1.54778 
1798.7715832089     2.035165 
1816.759299041      2.65969 
1834.9268920314     2.785505 
1853.2761609517     3.432645 
1871.8089225613      4.50738 
1890.5270117869     6.251635 
1909.4322819047     8.099705 
1928.5266047238      7.57524 
1947.811870771 14.527854545455 
1967.2899894787      18.7539 
1986.9628893735 20.030466666667 
2006.8325182673     22.77725 
2026.9008434499     28.08875 
2047.1698518844     32.66015 
2067.6415504033    36.584415 
2088.3179659073     69.24475 
2109.2011455664      77.7798 
2130.293157022      92.1744 
2151.5960885923      94.7148 
2173.1120494782      96.5591 
2194.843169973 140.70666666667 
2216.7916016727     173.8475 
2238.9595176894      258.075 
2261.3491128663      217.854 
2283.962603995 294.93766666667 
2306.8022300349     467.2265 
2329.8702523353      511.179 
2353.1689548586      421.252 
2376.7006444072     683.0665 
2400.4676508513      900.816 
2424.4723273598 1235.6823333333 
2448.7170506334      1507.94 
2473.2042211397 1186.5546666667 
2497.9362633511 1409.3282608696 
2522.9156259846 2558.2151851852 
2548.1447822445     3233.015 
2573.6262300669 3387.8533333333 
2599.3624923676 4880.8533333333 
2625.3561172913      8522.92 
2651.6096784642 9718.9266666667 
2678.1257752488      9083.27 
2704.9070330013 9594.2566666667 
2731.9561033313 10340.203333333 
2759.2756643647 14544.666666667 
2786.8684210083     12220.55 
2814.7371052184 14524.533333333 
2842.8844762706 9699.6033333333 
2871.3133210333 20606.466666667 
2900.0264542436        31483 
2929.026718786     34715.85 
2958.3169859739        33622 
2987.9001558336     35301.15 
3017.779157392        44604 
3047.9569489659     58528.65 
3078.4365184556      55656.8 
3109.2208836401     101845.1 
3140.3130924765     162432.5 
3171.7162234013       144656 
3203.4333856353       144780 
3235.4677194916       241304 
3267.8223966866       365645 
3300.5006206534     292059.5 
3333.50562686       252907 
3366.8406831286     162791.5 
3400.5090899598     220242.5 
3434.5141808594       215283 
3468.859322668       261413 
3503.5479158947     383698.5 
3538.5833950537     367366.5 
3573.9692290042       210527 
3609.7089212942     361619.6 
3645.8060105072       627206 
3682.2640706123       456053 
3719.0867113184     196963.5 
3756.2775784316       515060 
3793.8403542159     326092.5 
3831.778757758       313751 
3870.0965453356       367117 
3908.797510789     365902.5 
3947.8854858969     342762.5 
3987.3643407558     988507.5 
4027.2379841634     904331.5 
4067.510364005    1012495.5 
4108.1854676451     942033.5 
4149.2673223215 921459.33333333 
4190.7599955447     700475.5 
4232.6675955002     860873.5 
4274.9942714552     807122.5 
4317.7442141697      1281945 
4360.9216563114      1290750 
4404.5308728746      1296105 
4448.5761816033      1556170 
4493.0619434193      1788990 
4537.9925628535      1877880 
4583.3724884821      1880185 
4629.2062133669 1939006.6666667 
4675.4982755006      1886250 
4722.2532582556      1827485 
4769.4757908381 1791713.3333333 
4817.1705487465      1989260 
4865.342254234 1896796.6666667 
4913.9956767763      1787295 
4963.1356335441 1532456.6666667 
5012.7669898795      1409895 
5062.8946597783      1284850 
5113.5236063761      1169745 
5164.6588424398 1122680.3333333 
5216.3054308642      2010215 
5268.4684851729 2033566.6666667 
5321.1531700246 2075876.6666667 
5374.3647017249      2049515 
5428.1083487421 2097576.6666667 
5482.3894322295 2181933.3333333 
5537.2133265518 2177666.6666667 
5592.5854598173      2264220 
5648.5113144155      2332430 
5704.9964275597 2359126.6666667 
5762.0463918353 2380173.3333333 
5819.6668557536 2389666.6666667 
5877.8635243112 1967013.3333333 
5936.6421595543 2399546.6666667 
5996.0085811498 2407446.6666667 
6055.9686669613 2376016.6666667 
6116.5283536309      2162510 
6177.6936371672 2313023.3333333 
6239.4705735389 2270656.6666667 
6301.8652792743      2293380 
6364.883932067 2314856.6666667 
6428.5327713877      2211520 
6492.8180991016 2317116.6666667 
6557.7462800926 2298733.3333333 
6623.3237428935 2303213.3333333 
6689.5569803225    2273122.5 
6756.4525501257      2267890 
6824.0170756269      2262835 
6892.2572463832      2247650 
6961.179818847    2231727.5 
7030.7916170355 2198966.6666667 
7101.0995332059      2135560 
7172.1105285379      2120970 
7243.8316338233      2152310 
7316.2699501615 2125673.3333333 
7389.4326496631    2109927.5 
7463.3269761598      2118710 
7537.9602459214    2109402.5 
7613.3398483806 2059623.3333333 
7689.4732468644      2048750 
7766.367979333      2058220 
7844.0316591264    2038317.5 
7922.4719757176      1997070 
8001.6966954748      1985265 
8081.7136624296    1969647.5 
8162.5307990539      1900420 
8244.1561070444      1928820 
8326.5976681148    1853802.5 
8409.863644796      1850976 
8493.9622812439    1740442.5 
8578.9019040564    1831962.5 
8664.6909230969      1738590 
8751.3378323279    1765202.5 
8838.8512106512    1780772.5 
8927.2397227577      1739538 
9016.5121199853      1734865 
9106.6772411851      1706648 
9197.744013597      1669060 
9289.721453733      1661898 
9382.6186682703      1626162 
9476.444854953      1615276 
9571.2093035025      1587350 
9666.9213965375      1557648 
9763.5906105029      1551008 
9861.226516608      1545978 
9959.838781774      1529520 
10059.437169592      1506430 
10160.031541288      1481660 
10261.631856701      1461845 
10364.248175268      1443355 
10467.89065702      1425640 
10572.56956359 1393736.6666667 
10678.295259226      1367620 
10785.078211819      1329395 
10892.928993937      1316635 
11001.858283876      1298155 
11111.876866715      1283890 
11222.995635382 1261446.6666667 
11335.225591736      1226140 
11448.577847653      1239990 
11563.06362613 1206926.6666667 
11678.694262391      1197965 
11795.481205015      1160355 
11913.436017065      1153430 
12032.570377236      1140615 
12152.896081008      1146450 
12274.425041818      1126500 
12397.169292236      1109250 
12521.140985159 1094996.6666667 
12646.35239501      1077345 
12772.81591896 1058316.6666667 
12900.54407815 1043726.6666667 
13029.549518932      1022020 
13159.845014121 1012996.6666667 
13291.443464262      1002920 
13424.357898905       998766 
13558.601477894 976769.66666667 
13694.187492673 972752.66666667 
13831.129367599       952388 
13969.440661275 942603.33333333 
14109.135067888 923589.33333333 
14250.226418567 904515.66666667 
14392.728682753       898402 
14536.65596958 886637.33333333 
14682.022529276       872718 
14828.842754569 860119.66666667 
14977.131182115       826256 
15126.902493936       855135 
15278.171518875 849987.66666667 
15430.953234064 841996.33333333 
15585.262766404       827670 
15741.115394068 786693.33333333 
15898.526548009 804888.28571429 
16057.511813489       784884 
16218.086931624       778970 
16380.26780094       762726 
16544.07047895     750558.5 
16709.511183739     710798.5 
16876.606295577       706158 
17045.372358532       670102 
17215.826082118       645825 
17387.984342939     624388.5 
17561.864186368       609025 
17737.482828232     590504.5 
17914.857656514       568219 
18094.006233079     545000.5 
18274.94629541     517019.5 
18457.695758364       507809 
18642.272715948       487816 
18828.695443107     468443.5 
19016.982397539       458834 
19207.152221514     439014.5 
19399.223743729       419870 
19593.215981166       404873 
19789.148140978       390922 
19987.039622388     387633.5 
20186.910018612       370161 
20388.779118798     360876.5 
20592.666909986       345608 
20798.593579086     333619.5 
21006.579514877     324201.5 
21216.645310025       315059 
21428.811763126     305836.5 
21643.099880757 291612.33333333 
21859.530879564     278059.5 
22078.12618836     272260.5 
22298.907450244       263397 
22521.896524746     254700.5 
22747.115489993 240912.66666667 
22974.586644893       231231 
23204.332511342       214164 
23436.375836456 209135.33333333 
23670.73959482     198545.5 
23907.446990769     196656.5 
24146.521460676 185913.66666667 
24387.986675283       176734 
24631.866542036 171233.33333333 
24878.185207456       167669 
25126.967059531 159513.66666667 
25378.236730126       154767 
25632.019097427 150495.66666667 
25888.339288402     146898.5 
26147.222681286 142341.33333333 
26408.694908098 135680.66666667 
26672.781857179       133306 
26939.509675751 128330.66666667 
27208.904772509       123602 
27480.993820234       118767 
27755.803758436       114726 
28033.361796021 110280.66666667 
28313.695413981 106811.66666667 
28596.832368121 102986.33333333 
28882.800691802 99168.766666667 
29171.62869872      93943.7 
29463.344985707 91514.233333333 
29757.978435564 87860.066666667 
30055.55821992        85391 
30356.113802119 81871.233333333 
30659.67494014        78888 
30966.271689541 76443.866666667 
31275.934406437 73510.133333333 
31588.693750501 71420.066666667 
31904.580688006     69358.68 
32223.626494886      66366.4 
32545.862759835      64396.6 
32871.321387434     62038.15 
33200.034601308     59343.45 
33532.034947321        57928 
33867.355296794      55479.7 
34206.028849762      53533.5 
34548.08913826      52043.7 
34893.570029642     50351.75 
35242.505729939      48260.6 
35594.930787238     46070.45 
35950.880095111      44492.8 
36310.388896062      42959.7 
36673.492785022     41568.75 
37040.227712872      39863.4 
37410.629990001      38382.4 
37784.736289901      37003.4 
38162.5836528     35598.55 
38544.209489328      34147.7 
38929.651584221     32946.75 
39318.948100064      31698.1 
39712.137581064        30293 
40109.258956875      29265.9 
40510.351546444     28182.35 
40915.455061908      27205.2 
41324.609612527     26185.25 
41737.855708653      25077.4 
42155.234265739      24394.5 
42576.786608396      23185.1 
43002.55447448     21460.35 
43432.580019225     20048.35 
43866.905819417      18710.9 
44305.574877612     17569.45 
44748.630626388     16907.05 
45196.116932652     16195.05 
45648.078101978 15643.566666667 
46104.558882998     15140.35 
46565.604471828     14857.55 
47031.260516546 14376.133333333 
47501.573121712     13883.85 
47976.588852929     13477.45 
48456.354741458      12983.4 
48940.918288873      12524.5 
49430.327471761 12064.866666667 
49924.630746479      11587.5 
50423.877053944      11218.5 
50928.115824483     10844.25 
51437.396982728 10506.133333333 
51951.770952555        10156 
52471.288662081 9843.5066666667 
52996.001548702 9455.6133333333 
53525.961564189      9184.35 
54061.221179831      8870.22 
54601.833391629 8560.8066666667 
55147.851725545     8321.415 
55699.330242801 8066.3333333333 
56256.323545229 7771.6533333333 
56818.886780681 7488.2666666667 
57387.075648488 7241.0466666667 
57960.946404973      6974.61 
58540.555869022 6721.3766666667 
59125.961427713 6490.4966666667 
59717.22104199 6267.8333333333 
60314.39325241 6029.0766666667 
60917.537184934 5818.2933333333 
61526.712556783 5624.5166666667 
62141.979682351 5410.8133333333 
62763.399479174 5232.8866666667 
63391.033473966 5044.6566666667 
64024.943808706       4812.7 
64665.193246793      4631.25 
65311.845179261      4465.65 
65964.963631053     4251.795 
66624.613267364      4102.75 
67290.859400038     3965.505 
67963.767994038       3787.5 
68643.405673978      3665.77 
69329.839730718     3546.545 
70023.138128025      3389.23 
70723.369509305      3249.87 
71430.603204399      3149.32 
72144.909236443     3042.925 
72866.358328807     2920.195 
73595.021912095      2798.29 
74330.972131216      2685.29 
75074.281852528      2570.06 
75825.024671053      2483.08 
76583.274917764      2402.52 
77349.107666942      2295.39 
78122.598743611     2199.515 
78903.824731047      2110.54 
79692.862978358     2027.945 
80489.791608141     1952.705 
81294.689524223      1884.53 
82107.636419465     1817.555 
82928.712783659     1749.475 
83757.999911496      1685.97 
84595.579910611 1610.5833333333 
85441.535709717     1540.415 
86295.951066814      1486.17 
87158.910577482       1433.4 
88030.499683257      1383.44 
88910.80468009      1337.53 
89799.912726891 1281.8566666667 
90697.91185416      1227.15 
91604.890972701      1187.69 
92520.939882428      1139.59 
93446.149281253      1093.13 
94380.610774065      1057.21 
95324.416881806 1016.4233333333 
96277.661050624      974.753 
97240.43766113 936.95433333333 
98212.842037741      899.346 
99194.970458119       872.03 
100186.9201627      852.592 
199060.83304441      55.8399 
399467.9878358      3.54409 
594753.39981818      0.70257 
793700.71765891     0.222253 
997811.18987739    0.0908599 
1193529.3359837    0.0436954 
1399507.0114645     0.023511 
