#  WAVELENGTH	        FLUX	
#  (ANGSTROM)	(ERG/CM2/S/A)	
############	############	
478.88728360858  5.60534E-25 
488.51291800911  2.50578E-24 
498.3320276611  1.05052E-23 
503.31534793771  3.20676E-23 
508.34850141708   8.0944E-23 
518.56630629557  2.30608E-22 
528.98948905211  8.19513E-22 
539.62217778206  2.72897E-21 
545.01839955988  8.77762E-21 
555.97326939103  2.68529E-20 
567.14833210579   7.8769E-20 
578.54801358112  2.19632E-19 
584.33349371693  6.02715E-19 
596.07859694064   1.5784E-18 
608.05977673914  3.99845E-18 
614.14037450653  9.80049E-18 
626.48459603412  2.32986E-17 
639.0769364144  5.38166E-17 
645.46770577855   1.2091E-16 
651.92238283633  2.26657E-16 
658.44160666469  3.87146E-16 
671.67628295866  8.15969E-16 
678.39304578824  1.68026E-15 
692.02874600859  3.38058E-15 
698.94903346867   6.6327E-15 
712.99790904139  1.36912E-14 
720.12788813181  2.58377E-14 
734.60245868325  4.50291E-14 
741.94848327009  8.20286E-14 
749.36796810279  1.46872E-13 
764.43026426165  2.58833E-13 
772.07456690427  4.48427E-13 
779.79531257331  7.65901E-13 
787.59326569905   1.2769E-12 
803.4238903396  2.12705E-12 
811.45812924299  3.48895E-12 
819.57271053542  5.63193E-12 
827.76843764078  8.97756E-12 
844.40658323736  1.41332E-11 
852.85064906973  2.19939E-11 
861.37915556043  3.38295E-11 
869.99294711603  5.13559E-11 
878.69287658719  7.74745E-11 
887.47980535306  1.15461E-10 
896.3546034066  1.70269E-10 
914.37133093507    4.5704E-7 
923.51504424442   1.63509E-6 
932.75019468686   2.44402E-6 
942.07769663373   3.62077E-6 
951.49847360007   5.50251E-6 
961.01345833607   8.00977E-6 
970.62359291943   1.15588E-5 
980.32982884862   1.65673E-5 
990.13312713711   2.35462E-5 
1000.0344584085   3.37767E-5 
1010.0348029926   4.72857E-5 
1020.1351510225   6.25574E-5 
1030.3365025327   9.08641E-5 
1040.639867558   0.00012468 
1051.0462662336  0.000169975 
1061.556728896  0.000226518 
1072.1722961849  0.000305117 
1082.8940191468   0.00041506 
1093.7229593382  0.000543467 
1104.6601889316  0.003219095 
1115.7067908209   0.00815091 
1126.8638587291    0.0123077 
1138.1324973164     0.017052 
1149.5138222896    0.0194337 
1161.0089605125    0.0288205 
1172.6190501176    0.0348182 
1184.3452406188   0.02828935 
1196.188693025    0.0166944 
1208.1505799552   0.00932139 
1220.2320857548    0.0231289 
1232.4344066123     0.059522 
1244.7587506785     0.238159 
1257.2063381852     0.340753 
1269.7784015671     0.565573 
1282.4761855828    0.9560525 
1295.3009474386     0.924866 
1308.253956913      1.51141 
1321.3364964821      1.76532 
1334.5498614469      2.31778 
1347.8953600614      2.83693 
1361.374313662      3.15642 
1374.9880567986     3.745115 
1388.7379373666      4.59369 
1402.6253167403      5.74378 
1416.6515699077      6.67164 
1430.8180856068 8.3474852941176 
1445.1262664628 9.9907846153846 
1459.5775291275      12.2628 
1474.1733044187       13.682 
1488.9150374629      19.2543 
1503.8041878376 22.288213636364 
1518.8422297159        30.78 
1534.0306520131     85.06495 
1549.3709585332      124.971 
1564.8646681186      158.243 
1580.5133147997     282.8185 
1596.3184479477       322.28 
1612.2816324272       360.86 
1628.4044487515      434.675 
1644.688493239      443.493 
1661.1353781714 552.95572727273 
1677.7467319531      1284.99 
1694.5241992726     1901.195 
1711.4694412654     2740.885 
1728.584135678      4120.53 
1745.8699770348      6340.88 
1763.3286768051      6379.21 
1780.9619635732     9430.775 
1798.7715832089     8490.945 
1816.759299041      8930.67 
1834.9268920314     11653.25 
1853.2761609517     16630.65 
1871.8089225613     20421.75 
1890.5270117869      25399.4 
1909.4322819047      25373.9 
1928.5266047238      26174.1 
1947.811870771 44021.263636364 
1967.2899894787 45829.782352941 
1986.9628893735 52974.904761905 
2006.8325182673      49182.3 
2026.9008434499     69859.85 
2047.1698518844     62046.55 
2067.6415504033     111736.6 
2088.3179659073       227071 
2109.2011455664       250159 
2130.293157022       232945 
2151.5960885923     274381.5 
2173.1120494782     297514.5 
2194.843169973       304520 
2216.7916016727       315455 
2238.9595176894     281632.5 
2261.3491128663       245644 
2283.962603995 363025.66666667 
2306.8022300349       286141 
2329.8702523353     87787.65 
2353.1689548586     115493.9 
2376.7006444072     66825.25 
2400.4676508513    106000.65 
2424.4723273598       418840 
2448.7170506334       476661 
2473.2042211397 346121.33333333 
2497.9362633511 410267.39130435 
2522.9156259846 294433.14814815 
2548.1447822445     481027.5 
2573.6262300669       321607 
2599.3624923676 185401.33333333 
2625.3561172913     871320.5 
2651.6096784642 1169380.3333333 
2678.1257752488      1083771 
2704.9070330013 877943.33333333 
2731.9561033313       454571 
2759.2756643647       502698 
2786.8684210083       131385 
2814.7371052184       841732 
2842.8844762706 1080763.3333333 
2871.3133210333 1588496.6666667 
2900.0264542436      2206440 
2929.026718786      1935725 
2958.3169859739      2337110 
2987.9001558336      2450880 
3017.779157392      2607020 
3047.9569489659      2637485 
3078.4365184556      2925430 
3109.2208836401      2826170 
3140.3130924765      2902515 
3171.7162234013      2595470 
3203.4333856353      2680340 
3235.4677194916      3074160 
3267.8223966866      3472675 
3300.5006206534      3506550 
3333.50562686      3361630 
3366.8406831286      3266855 
3400.5090899598      3715615 
3434.5141808594      3932680 
3468.859322668      3842110 
3503.5479158947      4068680 
3538.5833950537      4211560 
3573.9692290042      3928930 
3609.7089212942      4110156 
3645.8060105072 4498856.6666667 
3682.2640706123      5260655 
3719.0867113184      6776945 
3756.2775784316      8254770 
3793.8403542159      8635205 
3831.778757758      9374630 
3870.0965453356      8220430 
3908.797510789      5868725 
3947.8854858969      4810635 
3987.3643407558     10181405 
4027.2379841634     10886550 
4067.510364005     11119100 
4108.1854676451     11113000 
4149.2673223215 11851866.666667 
4190.7599955447     11477300 
4232.6675955002     11577250 
4274.9942714552     10280780 
4317.7442141697     11018700 
4360.9216563114     12062700 
4404.5308728746     11742150 
4448.5761816033 12124933.333333 
4493.0619434193     12713400 
4537.9925628535     12615450 
4583.3724884821     12529650 
4629.2062133669 12735866.666667 
4675.4982755006     12322000 
4722.2532582556     12833700 
4769.4757908381 12748366.666667 
4817.1705487465     12209650 
4865.342254234 11516233.333333 
4913.9956767763     12150900 
4963.1356335441 11670166.666667 
5012.7669898795     11688750 
5062.8946597783 11884833.333333 
5113.5236063761     11256500 
5164.6588424398 11012666.666667 
5216.3054308642     11231350 
5268.4684851729 10906766.666667 
5321.1531700246 11044666.666667 
5374.3647017249     10911200 
5428.1083487421     11049600 
5482.3894322295 10856033.333333 
5537.2133265518 10798433.333333 
5592.5854598173     10811350 
5648.5113144155     10547700 
5704.9964275597     10616000 
5762.0463918353 10499466.666667 
5819.6668557536 10454333.333333 
5877.8635243112     10161800 
5936.6421595543     10134500 
5996.0085811498      9911670 
6055.9686669613 9755656.6666667 
6116.5283536309 9279166.6666667 
6177.6936371672 9426823.3333333 
6239.4705735389 9163546.6666667 
6301.8652792743 9035956.6666667 
6364.883932067 8938973.3333333 
6428.5327713877      8752860 
6492.8180991016      8603280 
6557.7462800926 8053553.3333333 
6623.3237428935 8461963.3333333 
6689.5569803225      8319565 
6756.4525501257 8171293.3333333 
6824.0170756269    8019927.5 
6892.2572463832      7890110 
6961.179818847    7702942.5 
7030.7916170355      7597080 
7101.0995332059      7384690 
7172.1105285379 7198356.6666667 
7243.8316338233      7113935 
7316.2699501615      7034690 
7389.4326496631    6804847.5 
7463.3269761598      6737350 
7537.9602459214    6651122.5 
7613.3398483806 6502016.6666667 
7689.4732468644      6375100 
7766.367979333      6271330 
7844.0316591264      6132435 
7922.4719757176    6002982.5 
8001.6966954748    5897457.5 
8081.7136624296      5806410 
8162.5307990539    5621832.5 
8244.1561070444    5550367.5 
8326.5976681148      5402665 
8409.863644796      5255214 
8493.9622812439    4770657.5 
8578.9019040564    5141427.5 
8664.6909230969      4826616 
8751.3378323279    5075402.5 
8838.8512106512    4876147.5 
8927.2397227577      4811062 
9016.5121199853    4713867.5 
9106.6772411851      4699344 
9197.744013597    4413582.5 
9289.721453733      4521216 
9382.6186682703      4354976 
9476.444854953      4218960 
9571.2093035025    4179272.5 
9666.9213965375      4087638 
9763.5906105029      4026806 
9861.226516608      3921416 
9959.838781774 3835869.3333333 
10059.437169592      3697970 
10160.031541288      3669385 
10261.631856701      3598440 
10364.248175268      3518305 
10467.89065702      3403765 
10572.56956359      3311270 
10678.295259226      3216610 
10785.078211819      3134135 
10892.928993937      3001785 
11001.858283876      3042100 
11111.876866715      2962950 
11222.995635382 2866333.3333333 
11335.225591736      2783695 
11448.577847653      2769550 
11563.06362613 2654073.3333333 
11678.694262391      2600805 
11795.481205015      2525860 
11913.436017065 2492003.3333333 
12032.570377236      2424305 
12152.896081008      2393265 
12274.425041818      2329260 
12397.169292236      2276850 
12521.140985159      2207150 
12646.35239501      2165285 
12772.81591896      2064240 
12900.54407815 2046763.3333333 
13029.549518932      2000425 
13159.845014121 1946616.6666667 
13291.443464262      1905070 
13424.357898905 1862833.3333333 
13558.601477894 1801246.6666667 
13694.187492673 1744446.6666667 
13831.129367599      1715385 
13969.440661275 1674403.3333333 
14109.135067888 1623726.6666667 
14250.226418567      1579890 
14392.728682753      1516860 
14536.65596958 1492893.6666667 
14682.022529276 1442436.6666667 
14828.842754569      1410330 
14977.131182115 1364726.6666667 
15126.902493936 1336593.3333333 
15278.171518875 1292733.3333333 
15430.953234064 1261746.6666667 
15585.262766404 1231523.3333333 
15741.115394068      1184070 
15898.526548009      1185210 
16057.511813489      1115610 
16218.086931624      1126245 
16380.26780094      1049280 
16544.07047895      1066220 
16709.511183739       994986 
16876.606295577       996327 
17045.372358532       958877 
17215.826082118     892582.5 
17387.984342939     877222.5 
17561.864186368       853500 
17737.482828232     830287.5 
17914.857656514     800541.5 
18094.006233079     749551.5 
18274.94629541     739024.5 
18457.695758364       716669 
18642.272715948     677914.5 
18828.695443107       663475 
19016.982397539     648124.5 
19207.152221514     622102.5 
19399.223743729     585867.5 
19593.215981166     577604.5 
19789.148140978     558171.5 
19987.039622388     541008.5 
20186.910018612     518573.5 
20388.779118798       503881 
20592.666909986       484409 
20798.593579086     467779.5 
21006.579514877     451941.5 
21216.645310025     436389.5 
21428.811763126     423501.5 
21643.099880757       398644 
21859.530879564     388550.5 
22078.12618836     375918.5 
22298.907450244       364395 
22521.896524746       350561 
22747.115489993       337830 
22974.586644893     325372.5 
23204.332511342       314977 
23436.375836456       303241 
23670.73959482       290771 
23907.446990769       282223 
24146.521460676       271089 
24387.986675283     260702.5 
24631.866542036       251564 
24878.185207456     241743.5 
25126.967059531       233689 
25378.236730126       226323 
25632.019097427 216309.66666667 
25888.339288402       211343 
26147.222681286 199097.33333333 
26408.694908098       194905 
26672.781857179       186076 
26939.509675751       182990 
27208.904772509 175744.33333333 
27480.993820234       166407 
27755.803758436     163167.5 
28033.361796021 157846.66666667 
28313.695413981 151647.66666667 
28596.832368121 143957.33333333 
28882.800691802 140174.33333333 
29171.62869872       134784 
29463.344985707       129911 
29757.978435564 124979.66666667 
30055.55821992 119305.33333333 
30356.113802119       115614 
30659.67494014 111635.33333333 
30966.271689541 107430.66666667 
31275.934406437 103774.33333333 
31588.693750501 100235.06666667 
31904.580688006     96884.88 
32223.626494886     92901.95 
32545.862759835      89640.3 
32871.321387434      85530.2 
33200.034601308     82473.65 
33532.034947321        79606 
33867.355296794     76947.25 
34206.028849762     73876.55 
34548.08913826      71485.8 
34893.570029642     69255.95 
35242.505729939        66276 
35594.930787238     63468.45 
35950.880095111     60917.65 
36310.388896062      58803.7 
36673.492785022     56958.45 
37040.227712872     54585.05 
37410.629990001     52053.85 
37784.736289901     50446.65 
38162.5836528      48654.2 
38544.209489328        46718 
38929.651584221      44801.1 
39318.948100064     43263.65 
39712.137581064      41425.6 
40109.258956875     39626.55 
40510.351546444     38564.25 
40915.455061908      37239.8 
41324.609612527     35626.75 
41737.855708653     34490.25 
42155.234265739     33353.25 
42576.786608396     32123.95 
43002.55447448     30811.95 
43432.580019225      29406.7 
43866.905819417 28182.066666667 
44305.574877612     26915.65 
44748.630626388      26023.2 
45196.116932652     25101.25 
45648.078101978      24096.2 
46104.558882998     23009.65 
46565.604471828      22326.3 
47031.260516546      21593.9 
47501.573121712     20752.65 
47976.588852929      20100.7 
48456.354741458      19322.8 
48940.918288873     18580.75 
49430.327471761 17877.733333333 
49924.630746479      17196.7 
50423.877053944      16550.6 
50928.115824483     15861.35 
51437.396982728 15366.833333333 
51951.770952555     14801.55 
52471.288662081 14274.633333333 
52996.001548702        13684 
53525.961564189      13175.4 
54061.221179831      12742.8 
54601.833391629 12216.033333333 
55147.851725545      11777.1 
55699.330242801 11402.666666667 
56256.323545229      10956.4 
56818.886780681 10497.766666667 
57387.075648488     10107.51 
57960.946404973 9716.8333333333 
58540.555869022      9302.96 
59125.961427713 8944.9666666667 
59717.22104199 8640.3366666667 
60314.39325241 8312.9466666667 
60917.537184934 7999.0933333333 
61526.712556783 7708.9633333333 
62141.979682351 7417.9466666667 
62763.399479174 7128.7266666667 
63391.033473966      6894.91 
64024.943808706      6596.62 
64665.193246793      6367.95 
65311.845179261      6150.69 
65964.963631053      5866.22 
66624.613267364      5663.71 
67290.859400038     5456.415 
67963.767994038     5223.445 
68643.405673978      5047.04 
69329.839730718     4878.735 
70023.138128025     4666.015 
70723.369509305      4465.32 
71430.603204399      4320.91 
72144.909236443     4179.195 
72866.358328807     4007.345 
73595.021912095     3839.875 
74330.972131216     3651.005 
75074.281852528      3531.42 
75825.024671053      3424.32 
76583.274917764      3320.65 
77349.107666942     3186.165 
78122.598743611     3063.685 
78903.824731047     2943.995 
79692.862978358     2829.575 
80489.791608141      2721.24 
81294.689524223     2613.865 
82107.636419465      2520.04 
82928.712783659     2425.255 
83757.999911496      2335.62 
84595.579910611 2230.7633333333 
85441.535709717      2130.19 
86295.951066814      2051.21 
87158.910577482      1977.28 
88030.499683257     1911.325 
88910.80468009      1845.02 
89799.912726891      1765.91 
90697.91185416     1690.495 
91604.890972701      1634.25 
92520.939882428 1566.1633333333 
93446.149281253      1498.92 
94380.610774065      1452.13 
95324.416881806      1393.18 
96277.661050624      1337.74 
97240.43766113 1284.2166666667 
98212.842037741     1233.755 
99194.970458119     1195.295 
100186.9201627      1167.37 
199060.83304441      75.4158 
399467.9878358      4.72326 
594753.39981818     0.927468 
793700.71765891     0.291578 
997811.18987739     0.118719 
1193529.3359837    0.0569438 
1399507.0114645    0.0305881 
