#  WAVELENGTH	        FLUX	
#  (ANGSTROM)	(ERG/CM2/S/A)	
############	############	
123.7446610678   1.7139E-22 
126.23192875526  7.53417E-22 
127.49424804281  1.61367E-21 
130.05688242847  5.24472E-21 
131.35745125276  1.47228E-20 
132.67102576529  3.25563E-20 
135.33771338317  1.30316E-19 
139.43858143639  6.31135E-19 
142.24129692326  3.27913E-18 
146.55135046134  1.88436E-17 
150.99200293167   9.5373E-17 
154.02694219059  5.24955E-16 
158.69411256591  2.11794E-15 
161.88386422848  6.97965E-15 
165.13772989948  2.91831E-14 
170.14156825316  1.26676E-13 
171.84298393569  3.50886E-13 
175.2970279128  1.03022E-12 
178.82049817385  2.91342E-12 
180.60870315558  4.55478E-12 
186.0813274699   1.6285E-11 
189.82156215205  6.31348E-11 
193.6369755513  1.36555E-10 
197.52907875988  4.33596E-10 
201.49941324296    1.0054E-9 
203.51440737539   2.16635E-9 
209.68109743327   7.69798E-9 
216.03464436659   2.68477E-8 
218.19499081026   5.72418E-8 
222.58071012555   1.09999E-7 
224.8065172268   2.33458E-7 
229.32512822306   6.16184E-6 
233.93456330034   1.49829E-5 
238.63664802268   4.02193E-5 
245.86757709442  0.000110845 
250.80951539401  0.000269009 
255.85078665343  0.000488818 
258.40929451997  0.000794699 
263.60332133982   0.00135685 
266.23935455322   0.00242936 
271.59076557974   0.00452234 
277.04973996789   0.00829745 
282.61843974125    0.0160009 
288.29907038004    0.0311263 
294.09388169468    0.0589329 
300.00516871675    0.0981691 
306.03527260795      0.19431 
315.30844740325      0.50852 
324.86260866801      1.19623 
334.70627057326      2.76886 
344.8482052779      5.98455 
355.29745074603      12.9825 
362.43892950602      24.6119 
373.42119150899      43.3215 
384.7362270329      80.2691 
392.46942519626        144.6 
404.36164124913      249.959 
412.48931023824       403.29 
420.78034537403      596.941 
429.23803031605      883.881 
437.8657147254      1468.99 
446.66681559138      2272.59 
455.64481858477      3288.21 
469.4513122327      4933.29 
478.88728360858      7208.57 
488.51291800911      10436.3 
498.3320276611      14828.1 
503.31534793771        99609 
508.34850141708       744957 
518.56630629557       914184 
528.98948905211      1214590 
539.62217778206      1380310 
545.01839955988      2020640 
555.97326939103      2409580 
567.14833210579      3060460 
578.54801358112      3052250 
584.33349371693      4129310 
596.07859694064      4980360 
608.05977673914      6100900 
614.14037450653      6914320 
626.48459603412      7881630 
639.0769364144      8072660 
645.46770577855      6808980 
651.92238283633     10284800 
658.44160666469     12030500 
671.67628295866     13231100 
678.39304578824     14417300 
692.02874600859     17844200 
698.94903346867     19194100 
712.99790904139     21939200 
720.12788813181     23729900 
734.60245868325     25450800 
741.94848327009     29205100 
749.36796810279     32144900 
764.43026426165     35367400 
772.07456690427     38928400 
779.79531257331     42500700 
787.59326569905     45220700 
803.4238903396     48405700 
811.45812924299     51430600 
819.57271053542     56640400 
827.76843764078     55821400 
844.40658323736     62306200 
852.85064906973     65979500 
861.37915556043     71391100 
869.99294711603     77336600 
878.69287658719     84343000 
887.47980535306     89655300 
896.3546034066     90509100 
914.37133093507    140991000 
923.51504424442    891253000 
932.75019468686   2670430000 
942.07769663373   7031540000 
951.49847360007  10673300000 
961.01345833607  13037900000 
970.62359291943   1871480000 
980.32982884862  12122500000 
990.13312713711  12256400000 
1000.0344584085  15052100000 
1010.0348029926  14437700000 
1020.1351510225   5111520000 
1030.3365025327   9980390000 
1040.639867558  18176800000 
1051.0462662336  16844900000 
1061.556728896  13267000000 
1072.1722961849  15902500000 
1082.8940191468  13833600000 
1093.7229593382  16025600000 
1104.6601889316  13621000000 
1115.7067908209  11219500000 
1126.8638587291  14824400000 
1138.1324973164  13035300000 
1149.5138222896  13732300000 
1161.0089605125  13814300000 
1172.6190501176   8667960000 
1184.3452406188  12382000000 
1196.188693025   6363570000 
1208.1505799552   4112520000 
1220.2320857548   9945790000 
1232.4344066123  12826200000 
1244.7587506785  12633250000 
1257.2063381852  12235200000 
1269.7784015671  12753600000 
1282.4761855828  10469025000 
1295.3009474386   8525080000 
1308.253956913  12093400000 
1321.3364964821  11194700000 
1334.5498614469  10719650000 
1347.8953600614  10894500000 
1361.374313662   9750750000 
1374.9880567986   9590410000 
1388.7379373666   7490370000 
1402.6253167403   8206355000 
1416.6515699077   8458970000 
1430.8180856068 8738272352.9412 
1445.1262664628 8556353076.9231 
1459.5775291275   7759380000 
1474.1733044187   7803600000 
1488.9150374629   7613080000 
1503.8041878376 6521966818.1818 
1518.8422297159   6609880000 
1534.0306520131   5684890000 
1549.3709585332   5471090000 
1564.8646681186   5976525000 
1580.5133147997   6152355000 
1596.3184479477   6203550000 
1612.2816324272   6033040000 
1628.4044487515   6289590000 
1644.688493239   6138880000 
1661.1353781714 6234448181.8182 
1677.7467319531   6288750000 
1694.5241992726   5793835000 
1711.4694412654   5315170000 
1728.584135678   5445790000 
1745.8699770348   5452150000 
1763.3286768051   5120155000 
1780.9619635732   5200230000 
1798.7715832089   5025600000 
1816.759299041   4950290000 
1834.9268920314   4528125000 
1853.2761609517   4285940000 
1871.8089225613   4386085000 
1890.5270117869   4000720000 
1909.4322819047   3806015000 
1928.5266047238   3976330000 
1947.811870771 3820791818.1818 
1967.2899894787 3983959411.7647 
1986.9628893735 3806984761.9048 
2006.8325182673   3875720000 
2026.9008434499   3630115000 
2047.1698518844   3563950000 
2067.6415504033   3620804500 
2088.3179659073   3409655000 
2109.2011455664   3487695000 
2130.293157022   3337950000 
2151.5960885923   3386245000 
2173.1120494782   3271005000 
2194.843169973 3219753333.3333 
2216.7916016727   3069305000 
2238.9595176894   3022085000 
2261.3491128663   3001805000 
2283.962603995 2891623333.3333 
2306.8022300349   2762900000 
2329.8702523353   2635405000 
2353.1689548586 2605656666.6667 
2376.7006444072   2537735000 
2400.4676508513   2464560000 
2424.4723273598 2420356666.6667 
2448.7170506334   2378385000 
2473.2042211397 2262653333.3333 
2497.9362633511 2210889565.2174 
2522.9156259846 2123731111.1111 
2548.1447822445   2105740000 
2573.6262300669   2085200000 
2599.3624923676   2025300000 
2625.3561172913   1989185000 
2651.6096784642   1937490000 
2678.1257752488   1881175000 
2704.9070330013 1820393333.3333 
2731.9561033313 1758973333.3333 
2759.2756643647   1725330000 
2786.8684210083   1660310000 
2814.7371052184 1631013333.3333 
2842.8844762706 1589303333.3333 
2871.3133210333 1549836666.6667 
2900.0264542436   1508190000 
2929.026718786   1457170000 
2958.3169859739   1421270000 
2987.9001558336   1371355000 
3017.779157392   1344930000 
3047.9569489659   1306305000 
3078.4365184556   1256720000 
3109.2208836401   1229665000 
3140.3130924765   1181755000 
3171.7162234013   1139060000 
3203.4333856353   1116890000 
3235.4677194916   1087190000 
3267.8223966866   1056195000 
3300.5006206534   1019065000 
3333.50562686    989519000 
3366.8406831286    964486500 
3400.5090899598    928726000 
3434.5141808594    898361000 
3468.859322668    876694000 
3503.5479158947    850271000 
3538.5833950537    824967000 
3573.9692290042    797535000 
3609.7089212942    777539400 
3645.8060105072    751549000 
3682.2640706123    719359500 
3719.0867113184    705167000 
3756.2775784316    753494000 
3793.8403542159    756021000 
3831.778757758    829413000 
3870.0965453356    665872000 
3908.797510789    812990500 
3947.8854858969    707592500 
3987.3643407558    763102000 
4027.2379841634    729000500 
4067.510364005    689131500 
4108.1854676451    628438500 
4149.2673223215    667339000 
4190.7599955447    647878500 
4232.6675955002    618094500 
4274.9942714552    597504500 
4317.7442141697    511203500 
4360.9216563114    552787500 
4404.5308728746    545758500 
4448.5761816033 519851333.33333 
4493.0619434193    509296500 
4537.9925628535    493665500 
4583.3724884821    477502000 
4629.2062133669 457664333.33333 
4675.4982755006    439941000 
4722.2532582556    427303000 
4769.4757908381 415552333.33333 
4817.1705487465    384854000 
4865.342254234    363913000 
4913.9956767763    367650500 
4963.1356335441    357138000 
5012.7669898795    344481000 
5062.8946597783    335176000 
5113.5236063761    320993500 
5164.6588424398 312332666.66667 
5216.3054308642    302480000 
5268.4684851729    292413000 
5321.1531700246 280655333.33333 
5374.3647017249    271953000 
5428.1083487421    262570000 
5482.3894322295    252916000 
5537.2133265518 243525333.33333 
5592.5854598173    235833000 
5648.5113144155 226815333.33333 
5704.9964275597 219638333.33333 
5762.0463918353 211970666.66667 
5819.6668557536    202025000 
5877.8635243112 195928333.33333 
5936.6421595543 189386666.66667 
5996.0085811498    183033000 
6055.9686669613    176715000 
6116.5283536309 170292333.33333 
6177.6936371672 164750333.33333 
6239.4705735389 158941333.33333 
6301.8652792743 153436666.66667 
6364.883932067    148365000 
6428.5327713877    142674750 
6492.8180991016 135161666.66667 
6557.7462800926 125389666.66667 
6623.3237428935    128127000 
6689.5569803225    123503000 
6756.4525501257    118957000 
6824.0170756269    114873000 
6892.2572463832 110689333.33333 
6961.179818847    106748500 
7030.7916170355 102331666.66667 
7101.0995332059     99071100 
7172.1105285379     95395800 
7243.8316338233     92295125 
7316.2699501615 89331966.666667 
7389.4326496631     86275200 
7463.3269761598     82893575 
7537.9602459214     79799050 
7613.3398483806     77158300 
7689.4732468644     74618800 
7766.367979333     71729700 
7844.0316591264     69142150 
7922.4719757176     66530575 
8001.6966954748     64160325 
8081.7136624296     61848000 
8162.5307990539     59597325 
8244.1561070444     57475025 
8326.5976681148     55435600 
8409.863644796     53151700 
8493.9622812439     51074600 
8578.9019040564     49244225 
8664.6909230969     47023160 
8751.3378323279     47463825 
8838.8512106512     44083175 
8927.2397227577     43672740 
9016.5121199853     42323725 
9106.6772411851     41898100 
9197.744013597     37751225 
9289.721453733     38973320 
9382.6186682703     37451620 
9476.444854953     34135020 
9571.2093035025     34604525 
9666.9213965375     33593740 
9763.5906105029     32350000 
9861.226516608     31092260 
9959.838781774 29399926.666667 
10059.437169592     27996000 
10160.031541288     27911900 
10261.631856701     26854800 
10364.248175268     25945450 
10467.89065702     25018100 
10572.56956359     23903700 
10678.295259226     22886950 
10785.078211819     21924350 
10892.928993937     20187500 
11001.858283876     20518750 
11111.876866715     19926450 
11222.995635382 19079666.666667 
11335.225591736     18312300 
11448.577847653     17719850 
11563.06362613 17000033.333333 
11678.694262391     16320550 
11795.481205015     15809350 
11913.436017065 15140633.333333 
12032.570377236     14602450 
12152.896081008     14151850 
12274.425041818 13613366.666667 
12397.169292236     13095100 
12521.140985159 12597733.333333 
12646.35239501     12137050 
12772.81591896 11278333.333333 
12900.54407815 11160066.666667 
13029.549518932     10787300 
13159.845014121 10402233.333333 
13291.443464262     10034860 
13424.357898905      9680550 
13558.601477894 9281863.3333333 
13694.187492673 8901446.6666667 
13831.129367599      8596595 
13969.440661275      8308620 
14109.135067888 7977436.6666667 
14250.226418567 7662036.6666667 
14392.728682753 7361163.3333333 
14536.65596958 7075693.6666667 
14682.022529276      6805400 
14828.842754569 6548696.6666667 
14977.131182115      6298290 
15126.902493936      6066050 
15278.171518875 5836083.3333333 
15430.953234064 5616143.3333333 
15585.262766404 5405996.6666667 
15741.115394068 5206166.6666667 
15898.526548009 5033391.4285714 
16057.511813489      4766220 
16218.086931624      4691755 
16380.26780094      4419090 
16544.07047895      4406095 
16709.511183739      4104580 
16876.606295577      4062190 
17045.372358532      3917880 
17215.826082118      3669550 
17387.984342939      3583225 
17561.864186368      3476540 
17737.482828232      3363045 
17914.857656514      3219655 
18094.006233079      3003570 
18274.94629541      2958710 
18457.695758364      2863170 
18642.272715948      2705460 
18828.695443107      2663575 
19016.982397539      2554825 
19207.152221514      2455110 
19399.223743729      2297510 
19593.215981166      2270590 
19789.148140978      2183270 
19987.039622388      2100030 
20186.910018612      2020775 
20388.779118798      1942725 
20592.666909986      1873090 
20798.593579086      1804290 
21006.579514877      1735270 
21216.645310025      1675830 
21428.811763126      1613590 
21643.099880757 1515603.3333333 
21859.530879564      1477550 
22078.12618836      1426205 
22298.907450244      1377385 
22521.896524746      1330470 
22747.115489993 1274656.6666667 
22974.586644893      1221525 
23204.332511342      1181355 
23436.375836456 1133336.6666667 
23670.73959482      1087580 
23907.446990769      1052555 
24146.521460676      1010802 
24387.986675283     970927.5 
24631.866542036 932664.33333333 
24878.185207456       896426 
25126.967059531 862035.33333333 
25378.236730126       831178 
25632.019097427 797794.66666667 
25888.339288402     769369.5 
26147.222681286 724270.66666667 
26408.694908098 710435.33333333 
26672.781857179       674728 
26939.509675751 662109.66666667 
27208.904772509 633565.33333333 
27480.993820234       598175 
27755.803758436       586397 
28033.361796021       566206 
28313.695413981 542939.33333333 
28596.832368121 511907.66666667 
28882.800691802 500352.66666667 
29171.62869872 480583.33333333 
29463.344985707 461765.33333333 
29757.978435564       443838 
30055.55821992 421540.33333333 
30356.113802119 407475.66666667 
30659.67494014 394972.66666667 
30966.271689541 380244.66666667 
31275.934406437 366196.66666667 
31588.693750501       352759 
31904.580688006       340349 
32223.626494886       325708 
32545.862759835       314003 
32871.321387434     297440.5 
33200.034601308     288618.5 
33532.034947321       278687 
33867.355296794       269166 
34206.028849762     257051.5 
34548.08913826       248386 
34893.570029642     240124.5 
35242.505729939     229602.5 
35594.930787238     219652.5 
35950.880095111       210225 
36310.388896062       203396 
36673.492785022     196949.5 
37040.227712872     187339.5 
37410.629990001     179026.5 
37784.736289901       173623 
38162.5836528       166627 
38544.209489328     160100.5 
38929.651584221     153196.5 
39318.948100064       147805 
39712.137581064       141579 
40109.258956875     133947.5 
40510.351546444     131264.5 
40915.455061908     126311.5 
41324.609612527       120421 
41737.855708653     116978.5 
42155.234265739     112753.5 
42576.786608396     108569.5 
43002.55447448       104728 
43432.580019225      99908.2 
43866.905819417 96296.933333333 
44305.574877612      92348.5 
44748.630626388      89193.2 
45196.116932652      86113.3 
45648.078101978      82447.3 
46104.558882998     77456.15 
46565.604471828     74901.95 
47031.260516546 73167.133333333 
47501.573121712      70191.9 
47976.588852929     67907.05 
48456.354741458 65184.466666667 
48940.918288873      62587.8 
49430.327471761 60127.166666667 
49924.630746479     57777.95 
50423.877053944 55530.233333333 
50928.115824483     52416.45 
51437.396982728      51306.5 
51951.770952555     49466.35 
52471.288662081 47596.133333333 
52996.001548702 45531.466666667 
53525.961564189      43788.3 
54061.221179831 42286.233333333 
54601.833391629      40454.7 
55147.851725545      38951.3 
55699.330242801      37670.3 
56256.323545229 36103.033333333 
56818.886780681      34496.2 
57387.075648488      33203.8 
57960.946404973        31872 
58540.555869022 30176.533333333 
59125.961427713 29170.266666667 
59717.22104199      28242.2 
60314.39325241      27153.9 
60917.537184934      26109.6 
61526.712556783      25115.2 
62141.979682351 24137.133333333 
62763.399479174 23057.766666667 
63391.033473966 22402.333333333 
64024.943808706 21409.485714286 
64665.193246793      20666.2 
65311.845179261      19924.4 
65964.963631053     18983.15 
66624.613267364        18312 
67290.859400038      17507.9 
67963.767994038      16858.8 
68643.405673978      16283.8 
69329.839730718     15731.45 
70023.138128025      15029.7 
70723.369509305     14366.45 
71430.603204399        13892 
72144.909236443     13435.95 
72866.358328807     12861.15 
73595.021912095     12298.45 
74330.972131216      11449.2 
75074.281852528      11279.2 
75825.024671053      10953.9 
76583.274917764     10616.95 
77349.107666942      10166.8 
78122.598743611     9776.695 
78903.824731047      9388.29 
79692.862978358      9018.67 
80489.791608141     8666.985 
81294.689524223       8302.6 
82107.636419465     8013.485 
82928.712783659     7709.895 
83757.999911496       7420.1 
84595.579910611      7077.87 
85441.535709717      6751.46 
86295.951066814      6468.94 
87158.910577482      6187.45 
88030.499683257      6049.21 
88910.80468009      5835.13 
89799.912726891 5580.8966666667 
90697.91185416     5339.665 
91604.890972701     5155.965 
92520.939882428      4936.97 
93446.149281253      4685.95 
94380.610774065     4572.705 
95324.416881806 4384.9033333333 
96277.661050624     4206.175 
97240.43766113 4036.6966666667 
98212.842037741      3874.31 
99194.970458119      3751.93 
100186.9201627      3662.56 
199060.83304441      228.129 
399467.9878358      14.0177 
594753.39981818      2.73883 
793700.71765891     0.859592 
997811.18987739     0.349816 
1193529.3359837     0.167768 
1399507.0114645    0.0901194 
