#  WAVELENGTH	        FLUX	
#  (ANGSTROM)	(ERG/CM2/S/A)	
############	############	
469.4513122327  7.19232E-25 
478.88728360858   3.3381E-24 
488.51291800911  1.45081E-23 
498.3320276611  5.91994E-23 
503.31534793771  1.78201E-22 
508.34850141708  4.42473E-22 
518.56630629557  1.23562E-21 
528.98948905211  4.28472E-21 
539.62217778206    1.394E-20 
545.01839955988  4.38527E-20 
555.97326939103  1.31291E-19 
567.14833210579  3.77229E-19 
578.54801358112  1.03112E-18 
584.33349371693  2.77488E-18 
596.07859694064  7.13182E-18 
608.05977673914  1.77421E-17 
614.14037450653  4.27309E-17 
626.48459603412  9.98729E-17 
639.0769364144   2.2693E-16 
645.46770577855  5.01805E-16 
651.92238283633  9.29027E-16 
658.44160666469  1.57039E-15 
671.67628295866  3.26114E-15 
678.39304578824  6.61852E-15 
692.02874600859  1.31326E-14 
698.94903346867  2.54375E-14 
712.99790904139  5.17151E-14 
720.12788813181  9.63563E-14 
734.60245868325  1.66062E-13 
741.94848327009  2.98886E-13 
749.36796810279  5.28939E-13 
764.43026426165  9.21379E-13 
772.07456690427  1.57868E-12 
779.79531257331  2.66666E-12 
787.59326569905  4.40458E-12 
803.4238903396  7.25759E-12 
811.45812924299  1.17768E-11 
819.57271053542  1.88214E-11 
827.76843764078  2.97121E-11 
844.40658323736  4.63395E-11 
852.85064906973  7.14474E-11 
861.37915556043  1.08917E-10 
869.99294711603  1.63953E-10 
878.69287658719   2.4516E-10 
887.47980535306  3.62308E-10 
896.3546034066  5.29751E-10 
914.37133093507   1.00398E-6 
923.51504424442   3.55077E-6 
932.75019468686   5.25476E-6 
942.07769663373   7.98113E-6 
951.49847360007    1.1649E-5 
961.01345833607   1.68306E-5 
970.62359291943   2.40715E-5 
980.32982884862      3.42E-5 
990.13312713711   4.81784E-5 
1000.0344584085    6.8716E-5 
1010.0348029926   9.54638E-5 
1020.1351510225  0.000129601 
1030.3365025327  0.000180775 
1040.639867558  0.000246349 
1051.0462662336  0.000333576 
1061.556728896  0.000448597 
1072.1722961849  0.000600454 
1082.8940191468  0.000798824 
1093.7229593382   0.00105555 
1104.6601889316  0.007912475 
1115.7067908209    0.0193603 
1126.8638587291    0.0287493 
1138.1324973164    0.0390027 
1149.5138222896    0.0447578 
1161.0089605125    0.0650688 
1172.6190501176     0.077997 
1184.3452406188   0.06583215 
1196.188693025    0.0392473 
1208.1505799552    0.0169546 
1220.2320857548     0.052532 
1232.4344066123     0.136524 
1244.7587506785    0.5500935 
1257.2063381852     0.845619 
1269.7784015671      1.63007 
1282.4761855828     3.335785 
1295.3009474386      2.92686 
1308.253956913      6.01297 
1321.3364964821      7.79029 
1334.5498614469    11.066685 
1347.8953600614       13.984 
1361.374313662      16.2435 
1374.9880567986       19.757 
1388.7379373666      25.6158 
1402.6253167403      31.4157 
1416.6515699077      36.9119 
1430.8180856068 44.127764705882 
1445.1262664628 55.753515384615 
1459.5775291275      64.1481 
1474.1733044187      76.3973 
1488.9150374629      104.671 
1503.8041878376     120.3065 
1518.8422297159      148.413 
1534.0306520131      378.004 
1549.3709585332       486.38 
1564.8646681186     590.3905 
1580.5133147997     1087.197 
1596.3184479477      1182.07 
1612.2816324272      1176.63 
1628.4044487515      1388.61 
1644.688493239    1323.4755 
1661.1353781714 1517.2896363636 
1677.7467319531      3616.67 
1694.5241992726      4334.04 
1711.4694412654      7448.39 
1728.584135678    11085.755 
1745.8699770348      15853.1 
1763.3286768051     16841.85 
1780.9619635732      24071.3 
1798.7715832089      21123.5 
1816.759299041      19940.3 
1834.9268920314      27134.6 
1853.2761609517     41666.05 
1871.8089225613     49303.55 
1890.5270117869     59609.65 
1909.4322819047      54915.4 
1928.5266047238        56702 
1947.811870771 103552.54545455 
1967.2899894787 108171.11764706 
1986.9628893735 119587.38095238 
2006.8325182673      99990.6 
2026.9008434499       151633 
2047.1698518844     119586.5 
2067.6415504033     233642.1 
2088.3179659073     319487.5 
2109.2011455664     330927.5 
2130.293157022       294369 
2151.5960885923     337852.5 
2173.1120494782     352899.5 
2194.843169973 383548.33333333 
2216.7916016727       380398 
2238.9595176894       335740 
2261.3491128663       293982 
2283.962603995 428220.66666667 
2306.8022300349       351400 
2329.8702523353    108375.35 
2353.1689548586     140426.9 
2376.7006444072      84565.6 
2400.4676508513       134075 
2424.4723273598       522416 
2448.7170506334       585820 
2473.2042211397 476058.66666667 
2497.9362633511       600951 
2522.9156259846 418221.11111111 
2548.1447822445       524601 
2573.6262300669 367317.66666667 
2599.3624923676 223704.33333333 
2625.3561172913     909080.5 
2651.6096784642 1204805.3333333 
2678.1257752488      1140320 
2704.9070330013       945284 
2731.9561033313 508614.66666667 
2759.2756643647 564169.33333333 
2786.8684210083     160620.5 
2814.7371052184 890063.66666667 
2842.8844762706 1201589.6666667 
2871.3133210333 1604313.3333333 
2900.0264542436      2180810 
2929.026718786      1945095 
2958.3169859739      2346000 
2987.9001558336      2499100 
3017.779157392      2665170 
3047.9569489659      2690540 
3078.4365184556      3016570 
3109.2208836401      2884535 
3140.3130924765      3042760 
3171.7162234013      2688510 
3203.4333856353      2803565 
3235.4677194916      3110440 
3267.8223966866      3469215 
3300.5006206534      3573495 
3333.50562686      3405940 
3366.8406831286      3411730 
3400.5090899598      3883345 
3434.5141808594      3996620 
3468.859322668      3878370 
3503.5479158947      4153665 
3538.5833950537      4329390 
3573.9692290042      4170080 
3609.7089212942      4302778 
3645.8060105072 4659053.3333333 
3682.2640706123      5923550 
3719.0867113184      9623650 
3756.2775784316     12349600 
3793.8403542159     13709350 
3831.778757758     15471050 
3870.0965453356     12255600 
3908.797510789      8187935 
3947.8854858969      6112200 
3987.3643407558     14765600 
4027.2379841634     16058300 
4067.510364005     16228500 
4108.1854676451     15806900 
4149.2673223215 17124766.666667 
4190.7599955447     16542600 
4232.6675955002     16717050 
4274.9942714552     15758800 
4317.7442141697     15273200 
4360.9216563114     17079400 
4404.5308728746     16235700 
4448.5761816033     16664800 
4493.0619434193     17191950 
4537.9925628535     16924150 
4583.3724884821     16828700 
4629.2062133669     17080500 
4675.4982755006     16380300 
4722.2532582556     17002600 
4769.4757908381 16773433.333333 
4817.1705487465     15909150 
4865.342254234 14932833.333333 
4913.9956767763     15753450 
4963.1356335441 15166866.666667 
5012.7669898795     15061400 
5062.8946597783 15259166.666667 
5113.5236063761     14401650 
5164.6588424398 14016133.333333 
5216.3054308642     14203100 
5268.4684851729 13696066.666667 
5321.1531700246 13844533.333333 
5374.3647017249     13635000 
5428.1083487421 13711433.333333 
5482.3894322295 13472533.333333 
5537.2133265518     13355000 
5592.5854598173     13316700 
5648.5113144155     12965300 
5704.9964275597 12971966.666667 
5762.0463918353 12765633.333333 
5819.6668557536 12630066.666667 
5877.8635243112     12264600 
5936.6421595543 12161666.666667 
5996.0085811498 11844733.333333 
6055.9686669613     11641700 
6116.5283536309 11084066.666667 
6177.6936371672 11193233.333333 
6239.4705735389 10855933.333333 
6301.8652792743 10678966.666667 
6364.883932067 10532833.333333 
6428.5327713877     10272825 
6492.8180991016 10003663.333333 
6557.7462800926      9219580 
6623.3237428935 9856806.6666667 
6689.5569803225      9656485 
6756.4525501257      9478630 
6824.0170756269    9272132.5 
6892.2572463832 9100566.6666667 
6961.179818847    8864802.5 
7030.7916170355      8726100 
7101.0995332059    8445272.5 
7172.1105285379      8243980 
7243.8316338233    8105722.5 
7316.2699501615      7988910 
7389.4326496631      7730050 
7463.3269761598    7600147.5 
7537.9602459214      7506325 
7613.3398483806 7319183.3333333 
7689.4732468644    7167442.5 
7766.367979333      7014980 
7844.0316591264      6833215 
7922.4719757176      6691300 
8001.6966954748      6564370 
8081.7136624296    6451247.5 
8162.5307990539    6233277.5 
8244.1561070444    6137112.5 
8326.5976681148    5954657.5 
8409.863644796      5869308 
8493.9622812439    5348972.5 
8578.9019040564      5942990 
8664.6909230969      5564160 
8751.3378323279    5944952.5 
8838.8512106512      5642955 
8927.2397227577      5589978 
9016.5121199853    5456477.5 
9106.6772411851      5448424 
9197.744013597      5054645 
9289.721453733      5222792 
9382.6186682703      5008920 
9476.444854953      4816688 
9571.2093035025    4780567.5 
9666.9213965375      4661580 
9763.5906105029      4586548 
9861.226516608      4445070 
9959.838781774 4335605.3333333 
10059.437169592      4149875 
10160.031541288      4134530 
10261.631856701      4042175 
10364.248175268      3941540 
10467.89065702      3791055 
10572.56956359 3685636.6666667 
10678.295259226      3570555 
10785.078211819      3480380 
10892.928993937      3308585 
11001.858283876      3362470 
11111.876866715      3264425 
11222.995635382 3140446.6666667 
11335.225591736      3044485 
11448.577847653      3021460 
11563.06362613      2883830 
11678.694262391      2815520 
11795.481205015      2727475 
11913.436017065      2686870 
12032.570377236      2605840 
12152.896081008      2560410 
12274.425041818      2486010 
12397.169292236      2424440 
12521.140985159 2340493.3333333 
12646.35239501      2293385 
12772.81591896      2182150 
12900.54407815      2153480 
13029.549518932      2098605 
13159.845014121 2036763.3333333 
13291.443464262      1987480 
13424.357898905      1934330 
13558.601477894 1866803.3333333 
13694.187492673      1798400 
13831.129367599      1763755 
13969.440661275 1718473.3333333 
14109.135067888      1662140 
14250.226418567      1612130 
14392.728682753 1541386.6666667 
14536.65596958 1512304.3333333 
14682.022529276 1458403.3333333 
14828.842754569      1419150 
14977.131182115      1368180 
15126.902493936 1339973.3333333 
15278.171518875 1296533.3333333 
15430.953234064 1273253.3333333 
15585.262766404 1243506.6666667 
15741.115394068 1200873.3333333 
15898.526548009 1198241.4285714 
16057.511813489      1128240 
16218.086931624      1131795 
16380.26780094      1057900 
16544.07047895      1066500 
16709.511183739    1001749.5 
16876.606295577       994846 
17045.372358532     959112.5 
17215.826082118     898142.5 
17387.984342939     878108.5 
17561.864186368       853125 
17737.482828232     830396.5 
17914.857656514       800984 
18094.006233079     754799.5 
18274.94629541       741189 
18457.695758364       717841 
18642.272715948       683413 
18828.695443107     667492.5 
19016.982397539     650522.5 
19207.152221514       625252 
19399.223743729     591418.5 
19593.215981166       580544 
19789.148140978     560893.5 
19987.039622388     542883.5 
20186.910018612     521776.5 
20388.779118798       505897 
20592.666909986       486827 
20798.593579086     470501.5 
21006.579514877       454028 
21216.645310025       438487 
21428.811763126       425782 
21643.099880757 402378.33333333 
21859.530879564       390995 
22078.12618836     378206.5 
22298.907450244     366932.5 
22521.896524746       353256 
22747.115489993       340616 
22974.586644893       328069 
23204.332511342       318068 
23436.375836456       306000 
23670.73959482       294016 
23907.446990769     284819.5 
24146.521460676       274190 
24387.986675283       264103 
24631.866542036 255088.33333333 
24878.185207456       244959 
25126.967059531 237289.66666667 
25378.236730126     230523.5 
25632.019097427 220157.66666667 
25888.339288402     215486.5 
26147.222681286       203195 
26408.694908098 198938.33333333 
26672.781857179       189745 
26939.509675751 186467.33333333 
27208.904772509       179119 
27480.993820234 169838.66666667 
27755.803758436     166371.5 
28033.361796021 160932.33333333 
28313.695413981       154647 
28596.832368121 147045.33333333 
28882.800691802 142966.33333333 
29171.62869872       137610 
29463.344985707 132603.66666667 
29757.978435564 127619.66666667 
30055.55821992       121915 
30356.113802119 118178.66666667 
30659.67494014 114048.33333333 
30966.271689541 109775.66666667 
31275.934406437 106045.33333333 
31588.693750501 102489.33333333 
31904.580688006     99065.44 
32223.626494886     95042.75 
32545.862759835      91733.2 
32871.321387434     87495.35 
33200.034601308        84370 
33532.034947321      81437.1 
33867.355296794      78764.2 
34206.028849762     75624.45 
34548.08913826      73209.6 
34893.570029642      70933.6 
35242.505729939     67898.05 
35594.930787238      65078.8 
35950.880095111     62439.25 
36310.388896062      60248.7 
36673.492785022      58455.5 
37040.227712872      56146.6 
37410.629990001      53484.6 
37784.736289901     51836.35 
38162.5836528      50061.9 
38544.209489328      48114.3 
38929.651584221        46067 
39318.948100064     44606.55 
39712.137581064      42724.3 
40109.258956875      40777.3 
40510.351546444      39767.3 
40915.455061908      38399.4 
41324.609612527     36714.25 
41737.855708653      35583.7 
42155.234265739     34406.15 
42576.786608396      33199.3 
43002.55447448      31999.1 
43432.580019225      30655.4 
43866.905819417      29504.9 
44305.574877612     28266.65 
44748.630626388      27302.2 
45196.116932652      26395.5 
45648.078101978 25307.433333333 
46104.558882998     24104.55 
46565.604471828     23343.55 
47031.260516546 22577.466666667 
47501.573121712      21682.7 
47976.588852929     21016.95 
48456.354741458 20192.233333333 
48940.918288873     19406.45 
49430.327471761      18675.5 
49924.630746479      17953.3 
50423.877053944      17290.1 
50928.115824483     16550.65 
51437.396982728 16033.066666667 
51951.770952555      15472.1 
52471.288662081      14888.2 
52996.001548702 14285.633333333 
53525.961564189     13714.85 
54061.221179831      13292.4 
54601.833391629 12735.833333333 
55147.851725545     12242.15 
55699.330242801 11872.566666667 
56256.323545229 11403.133333333 
56818.886780681        10907 
57387.075648488        10512 
57960.946404973     10104.04 
58540.555869022      9666.05 
59125.961427713      9286.24 
59717.22104199      8982.66 
60314.39325241      8641.83 
60917.537184934 8315.2533333333 
61526.712556783 8010.3433333333 
62141.979682351 7710.4533333333 
62763.399479174       7396.7 
63391.033473966      7163.07 
64024.943808706 6854.0728571429 
64665.193246793      6616.81 
65311.845179261     6389.445 
65964.963631053      6093.43 
66624.613267364      5885.53 
67290.859400038     5663.585 
67963.767994038      5425.79 
68643.405673978      5243.76 
69329.839730718      5066.48 
70023.138128025     4849.595 
70723.369509305     4637.535 
71430.603204399      4491.04 
72144.909236443      4339.09 
72866.358328807       4165.9 
73595.021912095      3992.07 
74330.972131216     3782.585 
75074.281852528      3671.66 
75825.024671053      3560.64 
76583.274917764      3453.38 
77349.107666942      3309.56 
78122.598743611      3186.48 
78903.824731047      3062.26 
79692.862978358      2943.42 
80489.791608141      2831.06 
81294.689524223     2716.235 
82107.636419465      2621.97 
82928.712783659      2523.27 
83757.999911496     2429.485 
84595.579910611 2321.1366666667 
85441.535709717      2216.33 
86295.951066814     2131.905 
87158.910577482     2055.955 
88030.499683257      1988.71 
88910.80468009      1920.52 
89799.912726891      1837.74 
90697.91185416     1759.935 
91604.890972701      1701.24 
92520.939882428      1629.86 
93446.149281253     1558.605 
94380.610774065      1511.55 
95324.416881806 1449.9766666667 
96277.661050624     1392.885 
97240.43766113 1337.2933333333 
98212.842037741      1283.52 
99194.970458119     1244.725 
100186.9201627      1215.48 
199060.83304441      78.5558 
399467.9878358      4.91351 
594753.39981818     0.964294 
793700.71765891     0.303108 
997811.18987739     0.123424 
1193529.3359837    0.0592093 
1399507.0114645    0.0318125 
