#  WAVELENGTH	        FLUX	
#  (ANGSTROM)	(ERG/CM2/S/A)	
############	############	
420.78034537403  1.84153E-24 
429.23803031605  7.28523E-24 
437.8657147254  4.42937E-23 
446.66681559138  2.10701E-22 
455.64481858477  8.06607E-22 
469.4513122327  3.36346E-21 
478.88728360858  1.31625E-20 
488.51291800911    4.857E-20 
498.3320276611  1.69378E-19 
503.31534793771  4.63623E-19 
508.34850141708    1.056E-18 
518.56630629557  2.62736E-18 
528.98948905211   7.9293E-18 
539.62217778206  2.25353E-17 
545.01839955988  6.23095E-17 
555.97326939103  1.64663E-16 
567.14833210579  4.19344E-16 
578.54801358112  1.01971E-15 
584.33349371693  2.45313E-15 
596.07859694064  5.65514E-15 
608.05977673914  1.26657E-14 
614.14037450653  2.75521E-14 
626.48459603412  5.83528E-14 
639.0769364144  1.20497E-13 
645.46770577855  2.42926E-13 
651.92238283633   4.1851E-13 
658.44160666469  6.64991E-13 
671.67628295866  1.26763E-12 
678.39304578824  2.36721E-12 
692.02874600859  4.33257E-12 
698.94903346867  7.75176E-12 
712.99790904139  1.45032E-11 
720.12788813181  2.50943E-11 
734.60245868325  4.05268E-11 
741.94848327009  6.79713E-11 
749.36796810279   1.1234E-10 
764.43026426165  1.83033E-10 
772.07456690427  2.93952E-10 
779.79531257331  4.66186E-10 
787.59326569905  7.22734E-10 
803.4238903396   1.12218E-9 
811.45812924299   1.71842E-9 
819.57271053542   2.59384E-9 
827.76843764078   3.87209E-9 
844.40658323736   5.71881E-9 
852.85064906973   8.35941E-9 
861.37915556043   1.20976E-8 
869.99294711603   1.72918E-8 
878.69287658719   2.46233E-8 
887.47980535306   3.46632E-8 
896.3546034066   4.82513E-8 
914.37133093507   7.43854E-5 
923.51504424442   0.00025071 
932.75019468686  0.000353764 
942.07769663373  0.000496444 
951.49847360007  0.000719568 
961.01345833607  0.000996009 
970.62359291943   0.00136445 
980.32982884862   0.00185759 
990.13312713711   0.00250554 
1000.0344584085    0.0034465 
1010.0348029926   0.00460499 
1020.1351510225    0.0060076 
1030.3365025327   0.00807602 
1040.639867558    0.0106103 
1051.0462662336    0.0138626 
1061.556728896    0.0179652 
1072.1722961849     0.023253 
1082.8940191468    0.0299227 
1093.7229593382    0.0381843 
1104.6601889316    0.2273226 
1115.7067908209     0.544366 
1126.8638587291     0.793278 
1138.1324973164      1.04942 
1149.5138222896      1.18637 
1161.0089605125      1.68251 
1172.6190501176      2.00665 
1184.3452406188       1.6613 
1196.188693025      1.05563 
1208.1505799552     0.477425 
1220.2320857548      1.35403 
1232.4344066123      3.30287 
1244.7587506785    13.954155 
1257.2063381852      20.6459 
1269.7784015671      36.4859 
1282.4761855828       65.591 
1295.3009474386      60.2826 
1308.253956913      104.935 
1321.3364964821       130.03 
1334.5498614469      172.628 
1347.8953600614      206.275 
1361.374313662      236.828 
1374.9880567986      277.749 
1388.7379373666      347.379 
1402.6253167403     411.2945 
1416.6515699077      478.058 
1430.8180856068      543.603 
1445.1262664628 680.62346153846 
1459.5775291275      748.363 
1474.1733044187     889.6105 
1488.9150374629      1117.94 
1503.8041878376 1291.4459090909 
1518.8422297159      1608.39 
1534.0306520131       4069.5 
1549.3709585332      5243.79 
1564.8646681186      6111.12 
1580.5133147997     9746.815 
1596.3184479477      10511.7 
1612.2816324272      10370.2 
1628.4044487515      12656.1 
1644.688493239     12151.73 
1661.1353781714 14423.330454545 
1677.7467319531      33377.7 
1694.5241992726      72032.8 
1711.4694412654     244661.5 
1728.584135678       350831 
1745.8699770348       486383 
1763.3286768051       426383 
1780.9619635732     601335.5 
1798.7715832089     532681.5 
1816.759299041       493030 
1834.9268920314     501576.5 
1853.2761609517     759203.5 
1871.8089225613       790292 
1890.5270117869     940673.5 
1909.4322819047       792188 
1928.5266047238     679533.5 
1947.811870771 1266005.4545455 
1967.2899894787 1249860.5882353 
1986.9628893735 1258864.7619048 
2006.8325182673    1043096.5 
2026.9008434499      1452045 
2047.1698518844      1222330 
2067.6415504033      1955702 
2088.3179659073      2203795 
2109.2011455664      2315970 
2130.293157022      2025430 
2151.5960885923      2263275 
2173.1120494782      2306270 
2194.843169973 2367233.3333333 
2216.7916016727      2248125 
2238.9595176894      2052025 
2261.3491128663      1952600 
2283.962603995 2387073.3333333 
2306.8022300349      2065695 
2329.8702523353     809055.5 
2353.1689548586 1016686.3333333 
2376.7006444072     540050.5 
2400.4676508513       823689 
2424.4723273598      2328650 
2448.7170506334      2486695 
2473.2042211397 2034176.6666667 
2497.9362633511 2407862.173913 
2522.9156259846 1597960.3703704 
2548.1447822445      2145740 
2573.6262300669      1821020 
2599.3624923676 1253783.3333333 
2625.3561172913      3544520 
2651.6096784642 4141213.3333333 
2678.1257752488      3816285 
2704.9070330013      3451580 
2731.9561033313 2241013.3333333 
2759.2756643647      2587950 
2786.8684210083     720155.5 
2814.7371052184 3858006.6666667 
2842.8844762706 4150076.6666667 
2871.3133210333      4792680 
2900.0264542436      6037490 
2929.026718786      5453360 
2958.3169859739      6160320 
2987.9001558336      6410385 
3017.779157392      6584760 
3047.9569489659      6700795 
3078.4365184556      7248080 
3109.2208836401      6900055 
3140.3130924765      7210385 
3171.7162234013      6481270 
3203.4333856353      6685175 
3235.4677194916      7192920 
3267.8223966866      7683965 
3300.5006206534      7879775 
3333.50562686      7665180 
3366.8406831286      7555430 
3400.5090899598      8024470 
3434.5141808594      8192310 
3468.859322668      8022375 
3503.5479158947      8343720 
3538.5833950537      8574755 
3573.9692290042      8197500 
3609.7089212942      8408546 
3645.8060105072 8894923.3333333 
3682.2640706123     10174015 
3719.0867113184     14543200 
3756.2775784316     19097500 
3793.8403542159     21150000 
3831.778757758     25154350 
3870.0965453356     18882500 
3908.797510789     18533800 
3947.8854858969     16791300 
3987.3643407558     25962350 
4027.2379841634     26435100 
4067.510364005     25486600 
4108.1854676451     23694000 
4149.2673223215     26896800 
4190.7599955447     26113750 
4232.6675955002     25936400 
4274.9942714552     24511750 
4317.7442141697     21577050 
4360.9216563114     25640900 
4404.5308728746     24674650 
4448.5761816033 24942466.666667 
4493.0619434193     25332750 
4537.9925628535     24995800 
4583.3724884821     24657200 
4629.2062133669     24644400 
4675.4982755006     23553750 
4722.2532582556     24301750 
4769.4757908381 23780466.666667 
4817.1705487465     21877450 
4865.342254234     20505500 
4913.9956767763     22180600 
4963.1356335441     21432200 
5012.7669898795     21199700 
5062.8946597783 21325866.666667 
5113.5236063761     20291250 
5164.6588424398 19708966.666667 
5216.3054308642     19857750 
5268.4684851729 19151866.666667 
5321.1531700246 19099266.666667 
5374.3647017249     18762950 
5428.1083487421     18787900 
5482.3894322295 18416833.333333 
5537.2133265518     18123500 
5592.5854598173     17966100 
5648.5113144155     17514900 
5704.9964275597 17438266.666667 
5762.0463918353     17117600 
5819.6668557536 16833266.666667 
5877.8635243112     16341000 
5936.6421595543 16129566.666667 
5996.0085811498 15699066.666667 
6055.9686669613 15423733.333333 
6116.5283536309 14714133.333333 
6177.6936371672 14768066.666667 
6239.4705735389 14333633.333333 
6301.8652792743 14054266.666667 
6364.883932067 13797833.333333 
6428.5327713877     13419375 
6492.8180991016 12878966.666667 
6557.7462800926 11847766.666667 
6623.3237428935 12755866.666667 
6689.5569803225     12475575 
6756.4525501257 12222933.333333 
6824.0170756269     11927675 
6892.2572463832 11675966.666667 
6961.179818847     11363075 
7030.7916170355     11151300 
7101.0995332059     10781300 
7172.1105285379 10534166.666667 
7243.8316338233     10329800 
7316.2699501615 10153566.666667 
7389.4326496631    9819882.5 
7463.3269761598    9623987.5 
7537.9602459214      9464945 
7613.3398483806      9219330 
7689.4732468644    9016137.5 
7766.367979333      8796800 
7844.0316591264    8566477.5 
7922.4719757176      8362990 
8001.6966954748    8190142.5 
8081.7136624296      8028165 
8162.5307990539      7754085 
8244.1561070444    7631762.5 
8326.5976681148    7401137.5 
8409.863644796      7194642 
8493.9622812439    6754937.5 
8578.9019040564      7112765 
8664.6909230969      6727732 
8751.3378323279    7145132.5 
8838.8512106512    6683742.5 
8927.2397227577      6695394 
9016.5121199853      6534345 
9106.6772411851      6575996 
9197.744013597    5967697.5 
9289.721453733      6293248 
9382.6186682703      6040294 
9476.444854953      5674766 
9571.2093035025    5734227.5 
9666.9213965375      5604106 
9763.5906105029      5499254 
9861.226516608      5323330 
9959.838781774 5136538.6666667 
10059.437169592      4900005 
10160.031541288      4938605 
10261.631856701      4820065 
10364.248175268      4694435 
10467.89065702      4521140 
10572.56956359 4381626.6666667 
10678.295259226      4240655 
10785.078211819      4124305 
10892.928993937      3833085 
11001.858283876      3973225 
11111.876866715      3861565 
11222.995635382      3711660 
11335.225591736      3597015 
11448.577847653      3559135 
11563.06362613 3400356.6666667 
11678.694262391      3312725 
11795.481205015      3211750 
11913.436017065 3154796.6666667 
12032.570377236      3056145 
12152.896081008      3000835 
12274.425041818      2910120 
12397.169292236      2834855 
12521.140985159      2736400 
12646.35239501      2675270 
12772.81591896      2499970 
12900.54407815 2509463.3333333 
13029.549518932      2443290 
13159.845014121      2370530 
13291.443464262      2311080 
13424.357898905      2247040 
13558.601477894 2167966.6666667 
13694.187492673 2087616.6666667 
13831.129367599      2044570 
13969.440661275 1990143.3333333 
14109.135067888 1923576.6666667 
14250.226418567      1863870 
14392.728682753      1782740 
14536.65596958 1746070.6666667 
14682.022529276      1684020 
14828.842754569      1638110 
14977.131182115 1580973.3333333 
15126.902493936 1539223.3333333 
15278.171518875 1481206.6666667 
15430.953234064 1441813.3333333 
15585.262766404 1402273.3333333 
15741.115394068 1352293.3333333 
15898.526548009 1353057.1428571 
16057.511813489      1257230 
16218.086931624      1282130 
16380.26780094      1178110 
16544.07047895      1215030 
16709.511183739      1119840 
16876.606295577      1130650 
17045.372358532      1090895 
17215.826082118      1004896 
17387.984342939       994458 
17561.864186368       968315 
17737.482828232       942083 
17914.857656514       906827 
18094.006233079     839444.5 
18274.94629541     837768.5 
18457.695758364       811205 
18642.272715948       761401 
18828.695443107     752215.5 
19016.982397539     733373.5 
19207.152221514       703451 
19399.223743729     655785.5 
19593.215981166     653285.5 
19789.148140978     630803.5 
19987.039622388       609842 
20186.910018612       585934 
20388.779118798     567529.5 
20592.666909986     545947.5 
20798.593579086     527292.5 
21006.579514877       508562 
21216.645310025       490835 
21428.811763126       475600 
21643.099880757       445261 
21859.530879564     436734.5 
22078.12618836     422305.5 
22298.907450244     409384.5 
22521.896524746     394234.5 
22747.115489993 379662.33333333 
22974.586644893     365379.5 
23204.332511342     354125.5 
23436.375836456       340626 
23670.73959482       326952 
23907.446990769       316882 
24146.521460676 304618.33333333 
24387.986675283       292968 
24631.866542036 282391.33333333 
24878.185207456       270857 
25126.967059531       261783 
25378.236730126       254528 
25632.019097427 242331.33333333 
25888.339288402       237131 
26147.222681286 221060.33333333 
26408.694908098 219413.66666667 
26672.781857179       206890 
26939.509675751 205696.66666667 
27208.904772509 197374.66666667 
27480.993820234 185498.66666667 
27755.803758436       183231 
28033.361796021 177183.33333333 
28313.695413981 170169.33333333 
28596.832368121 160228.66666667 
28882.800691802 157191.33333333 
29171.62869872 151239.33333333 
29463.344985707 145657.33333333 
29757.978435564       140133 
30055.55821992 133106.66666667 
30356.113802119 129178.33333333 
30659.67494014       125109 
30966.271689541       120403 
31275.934406437 116248.33333333 
31588.693750501 112279.66666667 
31904.580688006     108497.4 
32223.626494886     104031.5 
32545.862759835       100375 
32871.321387434     95105.45 
33200.034601308     92287.95 
33532.034947321      89066.5 
33867.355296794      86134.7 
34206.028849762     82633.45 
34548.08913826      79961.5 
34893.570029642        77443 
35242.505729939      74125.9 
35594.930787238      70993.7 
35950.880095111     68080.35 
36310.388896062      65723.2 
36673.492785022      63695.4 
37040.227712872     60981.25 
37410.629990001      58056.3 
37784.736289901     56389.45 
38162.5836528        54378 
38544.209489328      52307.5 
38929.651584221      49958.3 
39318.948100064        48477 
39712.137581064     46352.25 
40109.258956875      44017.2 
40510.351546444      43182.4 
40915.455061908      41685.4 
41324.609612527      39661.8 
41737.855708653      38612.2 
42155.234265739     37325.35 
42576.786608396     36008.65 
43002.55447448     34719.25 
43432.580019225      33130.5 
43866.905819417 32007.033333333 
44305.574877612      30694.7 
44748.630626388      29647.3 
45196.116932652      28653.8 
45648.078101978 27458.833333333 
46104.558882998     26015.05 
46565.604471828     25156.85 
47031.260516546 24463.566666667 
47501.573121712      23494.8 
47976.588852929     22761.05 
48456.354741458      21864.5 
48940.918288873      21008.7 
49430.327471761 20209.966666667 
49924.630746479     19429.55 
50423.877053944        18703 
50928.115824483     17796.95 
51437.396982728 17329.366666667 
51951.770952555      16719.9 
52471.288662081 16085.066666667 
52996.001548702      15426.6 
53525.961564189     14803.65 
54061.221179831      14348.7 
54601.833391629 13740.033333333 
55147.851725545      13200.9 
55699.330242801 12809.133333333 
56256.323545229 12296.933333333 
56818.886780681      11742.9 
57387.075648488 11330.466666667 
57960.946404973      10888.1 
58540.555869022      10379.5 
59125.961427713 9979.3633333333 
59717.22104199 9673.5466666667 
60314.39325241 9305.7866666667 
60917.537184934 8953.0733333333 
61526.712556783 8622.8866666667 
62141.979682351 8298.0166666667 
62763.399479174 7939.3833333333 
63391.033473966 7708.8633333333 
64024.943808706 7374.5814285714 
64665.193246793      7120.07 
65311.845179261     6873.415 
65964.963631053     6554.155 
66624.613267364      6327.72 
67290.859400038     6076.025 
67963.767994038     5833.635 
68643.405673978      5636.79 
69329.839730718     5447.065 
70023.138128025      5211.44 
70723.369509305     4983.705 
71430.603204399      4824.98 
72144.909236443     4662.925 
72866.358328807      4474.24 
73595.021912095      4287.18 
74330.972131216      4040.11 
75074.281852528      3941.43 
75825.024671053       3822.5 
76583.274917764     3706.935 
77349.107666942     3550.905 
78122.598743611     3419.555 
78903.824731047      3285.92 
79692.862978358     3158.255 
80489.791608141     3037.365 
81294.689524223     2911.605 
82107.636419465      2812.43 
82928.712783659     2706.655 
83757.999911496     2606.215 
84595.579910611 2489.2266666667 
85441.535709717      2376.94 
86295.951066814     2282.525 
87158.910577482     2199.265 
88030.499683257      2132.64 
88910.80468009     2058.685 
89799.912726891      1970.11 
90697.91185416      1886.29 
91604.890972701      1823.09 
92520.939882428      1746.75 
93446.149281253     1666.845 
94380.610774065      1619.44 
95324.416881806 1553.7033333333 
96277.661050624      1492.09 
97240.43766113      1432.48 
98212.842037741      1375.07 
99194.970458119     1333.175 
100186.9201627      1301.85 
199060.83304441      83.9005 
399467.9878358      5.24292 
594753.39981818      1.02855 
793700.71765891     0.323218 
997811.18987739     0.131577 
1193529.3359837    0.0631102 
1399507.0114645     0.033902 
