#  WAVELENGTH	        FLUX	
#  (ANGSTROM)	(ERG/CM2/S/A)	
############	############	
404.36164124913  9.34081E-25 
412.48931023824  4.74155E-24 
420.78034537403  1.88879E-23 
429.23803031605  7.12631E-23 
437.8657147254  4.07103E-22 
446.66681559138  1.83469E-21 
455.64481858477  6.70369E-21 
469.4513122327  2.65997E-20 
478.88728360858  9.92466E-20 
488.51291800911  3.49867E-19 
498.3320276611   1.1677E-18 
503.31534793771  3.11508E-18 
508.34850141708  6.92056E-18 
518.56630629557  1.66714E-17 
528.98948905211  4.83982E-17 
539.62217778206  1.32515E-16 
545.01839955988  3.53305E-16 
555.97326939103  9.01569E-16 
567.14833210579  2.22003E-15 
578.54801358112   5.2255E-15 
584.33349371693   1.2184E-14 
596.07859694064   2.7247E-14 
608.05977673914  5.92573E-14 
614.14037450653  1.25289E-13 
626.48459603412  2.58158E-13 
639.0769364144    5.191E-13 
645.46770577855   1.0198E-12 
651.92238283633  1.72188E-12 
658.44160666469  2.68944E-12 
671.67628295866  5.00521E-12 
678.39304578824  9.13273E-12 
692.02874600859  1.63413E-11 
698.94903346867  2.86043E-11 
712.99790904139  5.22778E-11 
720.12788813181   8.8601E-11 
734.60245868325  1.40525E-10 
741.94848327009  2.31126E-10 
749.36796810279  3.74738E-10 
764.43026426165  5.99363E-10 
772.07456690427  9.45174E-10 
779.79531257331   1.47275E-9 
787.59326569905    2.2442E-9 
803.4238903396    3.4266E-9 
811.45812924299   5.16201E-9 
819.57271053542   7.66827E-9 
827.76843764078   1.12707E-8 
844.40658323736   1.63925E-8 
852.85064906973     2.361E-8 
861.37915556043   3.36736E-8 
869.99294711603   4.74628E-8 
878.69287658719   6.66424E-8 
887.47980535306   9.25522E-8 
896.3546034066   1.27261E-7 
914.37133093507  0.000224906 
923.51504424442  0.000751766 
932.75019468686   0.00105069 
942.07769663373   0.00145841 
951.49847360007   0.00208592 
961.01345833607   0.00285522 
970.62359291943   0.00387452 
980.32982884862   0.00522718 
990.13312713711   0.00699521 
1000.0344584085    0.0094997 
1010.0348029926    0.0125713 
1020.1351510225    0.0162654 
1030.3365025327    0.0216562 
1040.639867558    0.0281862 
1051.0462662336     0.036491 
1061.556728896    0.0469424 
1072.1722961849     0.060192 
1082.8940191468    0.0767718 
1093.7229593382    0.0972973 
1104.6601889316     0.473751 
1115.7067908209       1.1021 
1126.8638587291      1.60179 
1138.1324973164      2.10844 
1149.5138222896       2.3844 
1161.0089605125      3.34754 
1172.6190501176       4.0311 
1184.3452406188      3.40267 
1196.188693025      2.30933 
1208.1505799552      1.00888 
1220.2320857548      2.93351 
1232.4344066123      6.87895 
1244.7587506785     25.44755 
1257.2063381852      35.9868 
1269.7784015671      56.9908 
1282.4761855828      92.2486 
1295.3009474386      90.5532 
1308.253956913      138.716 
1321.3364964821      165.451 
1334.5498614469     211.1735 
1347.8953600614      248.195 
1361.374313662      282.726 
1374.9880567986      324.723 
1388.7379373666      393.915 
1402.6253167403     467.1545 
1416.6515699077      535.684 
1430.8180856068      615.346 
1445.1262664628 744.96115384615 
1459.5775291275      830.494 
1474.1733044187     960.3175 
1488.9150374629      1202.15 
1503.8041878376 1382.0740909091 
1518.8422297159      1754.52 
1534.0306520131     4302.455 
1549.3709585332      5675.19 
1564.8646681186      6590.05 
1580.5133147997     9898.745 
1596.3184479477      10783.1 
1612.2816324272     11321.95 
1628.4044487515      14287.2 
1644.688493239     14246.55 
1661.1353781714 17404.554545455 
1677.7467319531        35758 
1694.5241992726        84311 
1711.4694412654       338901 
1728.584135678       495765 
1745.8699770348       710082 
1763.3286768051     565888.5 
1780.9619635732       862390 
1798.7715832089       735439 
1816.759299041       706152 
1834.9268920314     676499.5 
1853.2761609517    1019748.5 
1871.8089225613      1077955 
1890.5270117869      1263115 
1909.4322819047      1088951 
1928.5266047238     881753.5 
1947.811870771 1643183.6363636 
1967.2899894787 1575942.9411765 
1986.9628893735 1591988.5714286 
2006.8325182673      1378060 
2026.9008434499      1877200 
2047.1698518844      1664715 
2067.6415504033      2497072 
2088.3179659073      2930215 
2109.2011455664      3244580 
2130.293157022      2924995 
2151.5960885923      3263930 
2173.1120494782      3351620 
2194.843169973      3389480 
2216.7916016727      3275040 
2238.9595176894      3015800 
2261.3491128663      2911880 
2283.962603995 3439936.6666667 
2306.8022300349      3059395 
2329.8702523353      1404160 
2353.1689548586      1752980 
2376.7006444072     943397.5 
2400.4676508513      1332730 
2424.4723273598 3202323.3333333 
2448.7170506334      3469065 
2473.2042211397 2736683.3333333 
2497.9362633511 3101786.0869565 
2522.9156259846 1944019.2592593 
2548.1447822445      2919650 
2573.6262300669 2770733.3333333 
2599.3624923676 2095733.3333333 
2625.3561172913      4990480 
2651.6096784642 5686733.3333333 
2678.1257752488      5216480 
2704.9070330013 4771926.6666667 
2731.9561033313 3358013.3333333 
2759.2756643647 3893436.6666667 
2786.8684210083      1058289 
2814.7371052184      5648800 
2842.8844762706 5584753.3333333 
2871.3133210333 6478376.6666667 
2900.0264542436      8096410 
2929.026718786      7302690 
2958.3169859739      8137750 
2987.9001558336      8388400 
3017.779157392      8540040 
3047.9569489659      8733345 
3078.4365184556      9298990 
3109.2208836401      8911810 
3140.3130924765      9178820 
3171.7162234013      8314920 
3203.4333856353      8500990 
3235.4677194916      9129280 
3267.8223966866      9757180 
3300.5006206534      9939530 
3333.50562686      9707190 
3366.8406831286      9458395 
3400.5090899598      9852725 
3434.5141808594     10105300 
3468.859322668      9960020 
3503.5479158947     10242150 
3538.5833950537     10475310 
3573.9692290042      9880920 
3609.7089212942     10139600 
3645.8060105072 10832033.333333 
3682.2640706123     11279450 
3719.0867113184     13862000 
3756.2775784316     17575200 
3793.8403542159     19037800 
3831.778757758     22664350 
3870.0965453356     17470600 
3908.797510789     18109750 
3947.8854858969     16783900 
3987.3643407558     24081500 
4027.2379841634     24521600 
4067.510364005     23509300 
4108.1854676451     21979200 
4149.2673223215     25000700 
4190.7599955447     24314550 
4232.6675955002     24130150 
4274.9942714552     22470150 
4317.7442141697     20094450 
4360.9216563114     23895950 
4404.5308728746     23253400 
4448.5761816033 23445433.333333 
4493.0619434193     23871950 
4537.9925628535     23657200 
4583.3724884821     23301950 
4629.2062133669 23267433.333333 
4675.4982755006     22303650 
4722.2532582556     22994050 
4769.4757908381 22546366.666667 
4817.1705487465     20717650 
4865.342254234 19472166.666667 
4913.9956767763     21125700 
4963.1356335441 20469633.333333 
5012.7669898795     20312850 
5062.8946597783 20434333.333333 
5113.5236063761     19546950 
5164.6588424398 18954866.666667 
5216.3054308642     19189500 
5268.4684851729     18560100 
5321.1531700246     18460600 
5374.3647017249     18170650 
5428.1083487421 18223566.666667 
5482.3894322295     17889000 
5537.2133265518 17588466.666667 
5592.5854598173     17450750 
5648.5113144155 17060633.333333 
5704.9964275597 16988033.333333 
5762.0463918353 16711833.333333 
5819.6668557536 16456466.666667 
5877.8635243112 15988966.666667 
5936.6421595543     15815200 
5996.0085811498 15420666.666667 
6055.9686669613 15168033.333333 
6116.5283536309     14484700 
6177.6936371672 14550466.666667 
6239.4705735389     14157100 
6301.8652792743 13884733.333333 
6364.883932067     13642500 
6428.5327713877     13284150 
6492.8180991016 12727366.666667 
6557.7462800926 11773433.333333 
6623.3237428935 12650466.666667 
6689.5569803225     12397550 
6756.4525501257 12147766.666667 
6824.0170756269     11869450 
6892.2572463832 11628066.666667 
6961.179818847     11330375 
7030.7916170355     11124400 
7101.0995332059     10780475 
7172.1105285379     10532400 
7243.8316338233     10344675 
7316.2699501615     10175200 
7389.4326496631    9847697.5 
7463.3269761598      9673245 
7537.9602459214      9501000 
7613.3398483806 9265026.6666667 
7689.4732468644    9066572.5 
7766.367979333      8858910 
7844.0316591264    8645797.5 
7922.4719757176    8435772.5 
8001.6966954748    8264582.5 
8081.7136624296      8104420 
8162.5307990539    7837277.5 
8244.1561070444      7714895 
8326.5976681148    7512662.5 
8409.863644796      7289040 
8493.9622812439      6817550 
8578.9019040564      7001085 
8664.6909230969      6607324 
8751.3378323279    6927387.5 
8838.8512106512      6517120 
8927.2397227577      6517218 
9016.5121199853      6369210 
9106.6772411851      6408952 
9197.744013597    5839272.5 
9289.721453733      6144264 
9382.6186682703      5912202 
9476.444854953      5549930 
9571.2093035025    5619902.5 
9666.9213965375      5506766 
9763.5906105029      5401648 
9861.226516608      5237622 
9959.838781774 5046457.3333333 
10059.437169592      4828325 
10160.031541288      4869245 
10261.631856701      4758950 
10364.248175268      4639575 
10467.89065702      4483020 
10572.56956359 4341456.6666667 
10678.295259226      4207240 
10785.078211819      4086215 
10892.928993937      3792420 
11001.858283876      3944970 
11111.876866715      3843685 
11222.995635382 3703516.6666667 
11335.225591736      3592220 
11448.577847653      3553440 
11563.06362613 3403673.3333333 
11678.694262391      3317625 
11795.481205015      3221795 
11913.436017065      3163360 
12032.570377236      3069010 
12152.896081008      3019300 
12274.425041818 2929703.3333333 
12397.169292236      2856355 
12521.140985159 2762366.6666667 
12646.35239501      2697465 
12772.81591896      2506670 
12900.54407815 2538396.6666667 
13029.549518932      2474905 
13159.845014121 2404343.3333333 
13291.443464262      2346170 
13424.357898905 2285286.6666667 
13558.601477894 2206996.6666667 
13694.187492673      2129650 
13831.129367599      2087170 
13969.440661275      2032720 
14109.135067888 1966763.3333333 
14250.226418567 1907736.6666667 
14392.728682753      1828670 
14536.65596958 1792033.3333333 
14682.022529276 1729596.6666667 
14828.842754569 1684483.3333333 
14977.131182115 1629796.6666667 
15126.902493936      1589360 
15278.171518875 1533496.6666667 
15430.953234064 1485466.6666667 
15585.262766404      1440010 
15741.115394068      1381540 
15898.526548009      1373560 
16057.511813489      1278850 
16218.086931624      1302390 
16380.26780094      1194960 
16544.07047895      1239770 
16709.511183739      1133345 
16876.606295577      1154110 
17045.372358532      1114880 
17215.826082118    1018483.5 
17387.984342939      1014115 
17561.864186368       990565 
17737.482828232     963543.5 
17914.857656514       926006 
18094.006233079       848732 
18274.94629541     854772.5 
18457.695758364       828375 
18642.272715948     770613.5 
18828.695443107     765816.5 
19016.982397539       748210 
19207.152221514     716091.5 
19399.223743729     662616.5 
19593.215981166       666079 
19789.148140978       643419 
19987.039622388     622162.5 
20186.910018612       597299 
20388.779118798     578825.5 
20592.666909986       556674 
20798.593579086     537436.5 
21006.579514877       518620 
21216.645310025     500443.5 
21428.811763126       483916 
21643.099880757       450780 
21859.530879564     444920.5 
22078.12618836     430305.5 
22298.907450244       416935 
22521.896524746       401530 
22747.115489993 386510.66666667 
22974.586644893       371900 
23204.332511342     360305.5 
23436.375836456       346629 
23670.73959482       332431 
23907.446990769     322563.5 
24146.521460676 309930.33333333 
24387.986675283     297982.5 
24631.866542036 286930.33333333 
24878.185207456       275836 
25126.967059531 266110.66666667 
25378.236730126       257419 
25632.019097427       246091 
25888.339288402     239522.5 
26147.222681286 223126.66666667 
26408.694908098 221340.33333333 
26672.781857179       209268 
26939.509675751 207912.66666667 
27208.904772509 199346.33333333 
27480.993820234       187123 
27755.803758436     185123.5 
28033.361796021 179045.33333333 
28313.695413981 171879.33333333 
28596.832368121       161340 
28882.800691802 158805.66666667 
29171.62869872 152737.66666667 
29463.344985707 147097.33333333 
29757.978435564 141502.66666667 
30055.55821992 134126.66666667 
30356.113802119 130152.66666667 
30659.67494014 126312.33333333 
30966.271689541       121565 
31275.934406437       117356 
31588.693750501 113310.66666667 
31904.580688006     109486.6 
32223.626494886     104957.5 
32545.862759835       101235 
32871.321387434     95732.55 
33200.034601308     93139.05 
33532.034947321      89896.1 
33867.355296794      86918.7 
34206.028849762     83365.85 
34548.08913826      80659.5 
34893.570029642     78105.65 
35242.505729939     74754.15 
35594.930787238     71574.55 
35950.880095111      68644.2 
36310.388896062      66331.2 
36673.492785022      64216.4 
37040.227712872      61299.9 
37410.629990001     58457.75 
37784.736289901      56837.8 
38162.5836528      54743.6 
38544.209489328      52601.6 
38929.651584221      50380.9 
39318.948100064        48722 
39712.137581064      46607.5 
40109.258956875     44278.75 
40510.351546444      43384.9 
40915.455061908      41887.3 
41324.609612527      39897.9 
41737.855708653     38790.45 
42155.234265739     37499.25 
42576.786608396     36176.25 
43002.55447448     34870.65 
43432.580019225     33272.15 
43866.905819417 32119.866666667 
44305.574877612      30813.1 
44748.630626388     29788.65 
45196.116932652     28782.65 
45648.078101978      27582.2 
46104.558882998      26080.9 
46565.604471828      25234.2 
47031.260516546      24570.2 
47501.573121712      23592.9 
47976.588852929     22844.55 
48456.354741458      21948.7 
48940.918288873     21089.55 
49430.327471761      20280.6 
49924.630746479     19503.55 
50423.877053944 18769.333333333 
50928.115824483      17835.1 
51437.396982728 17390.433333333 
51951.770952555      16761.4 
52471.288662081 16144.366666667 
52996.001548702 15464.666666667 
53525.961564189     14872.05 
54061.221179831 14382.733333333 
54601.833391629      13773.8 
55147.851725545      13267.3 
55699.330242801      12840.5 
56256.323545229 12325.633333333 
56818.886780681        11793 
57387.075648488 11356.666666667 
57960.946404973 10911.733333333 
58540.555869022      10395.8 
59125.961427713     10019.14 
59717.22104199         9691 
60314.39325241 9322.8666666667 
60917.537184934 8968.7833333333 
61526.712556783 8638.3866666667 
62141.979682351 8311.7666666667 
62763.399479174 7963.6066666667 
63391.033473966 7722.3333333333 
64024.943808706      7386.82 
64665.193246793      7131.94 
65311.845179261     6885.245 
65964.963631053      6565.56 
66624.613267364      6337.79 
67290.859400038     6089.955 
67963.767994038     5845.205 
68643.405673978      5647.01 
69329.839730718      5458.59 
70023.138128025      5219.69 
70723.369509305     4994.645 
71430.603204399      4832.44 
72144.909236443      4674.02 
72866.358328807     4480.965 
73595.021912095      4293.48 
74330.972131216     4049.555 
75074.281852528     3946.965 
75825.024671053      3827.87 
76583.274917764      3711.88 
77349.107666942     3560.155 
78122.598743611     3423.885 
78903.824731047      3290.01 
79692.862978358     3162.165 
80489.791608141      3040.96 
81294.689524223      2919.15 
82107.636419465      2815.73 
82928.712783659     2710.005 
83757.999911496     2609.665 
84595.579910611      2492.13 
85441.535709717      2379.61 
86295.951066814      2288.24 
87158.910577482     2202.015 
88030.499683257     2134.995 
88910.80468009     2060.815 
89799.912726891      1972.38 
90697.91185416      1888.21 
91604.890972701     1824.955 
92520.939882428      1748.93 
93446.149281253      1670.31 
94380.610774065      1621.49 
95324.416881806      1555.68 
96277.661050624      1493.54 
97240.43766113 1433.8766666667 
98212.842037741     1377.485 
99194.970458119     1334.445 
100186.9201627      1303.17 
199060.83304441      84.0006 
399467.9878358      5.25302 
594753.39981818       1.0309 
793700.71765891     0.324007 
997811.18987739     0.131908 
1193529.3359837    0.0632724 
1399507.0114645    0.0339902 
