#  WAVELENGTH	        FLUX	
#  (ANGSTROM)	(ERG/CM2/S/A)	
############	############	
503.31534793771  8.72537E-25 
508.34850141708  2.29277E-24 
518.56630629557  6.88704E-24 
528.98948905211  2.60868E-23 
539.62217778206  9.23945E-23 
545.01839955988  3.15346E-22 
555.97326939103   1.0215E-21 
567.14833210579  3.16656E-21 
578.54801358112   9.3132E-21 
584.33349371693  2.69079E-20 
596.07859694064  7.40673E-20 
608.05977673914   1.9687E-19 
614.14037450653  5.05567E-19 
626.48459603412  1.25738E-18 
639.0769364144  3.03426E-18 
645.46770577855  7.11222E-18 
651.92238283633  1.37783E-17 
658.44160666469  2.42084E-17 
671.67628295866  5.30651E-17 
678.39304578824  1.13519E-16 
692.02874600859     2.37E-16 
698.94903346867  4.82078E-16 
712.99790904139  1.03395E-15 
720.12788813181  2.01854E-15 
734.60245868325  3.62395E-15 
741.94848327009  6.81818E-15 
749.36796810279  1.25961E-14 
764.43026426165  2.28893E-14 
772.07456690427  4.08446E-14 
779.79531257331  7.18156E-14 
787.59326569905  1.23178E-13 
803.4238903396  2.10891E-13 
811.45812924299  3.55305E-13 
819.57271053542  5.88765E-13 
827.76843764078   9.6281E-13 
844.40658323736  1.55409E-12 
852.85064906973  2.47829E-12 
861.37915556043  3.90372E-12 
869.99294711603  6.06753E-12 
878.69287658719   9.3612E-12 
887.47980535306  1.42654E-11 
896.3546034066  2.15052E-11 
914.37133093507   6.77528E-8 
923.51504424442   2.47474E-7 
932.75019468686   3.77445E-7 
942.07769663373   5.70352E-7 
951.49847360007   8.83638E-7 
961.01345833607   1.31091E-6 
970.62359291943   1.92712E-6 
980.32982884862   2.81271E-6 
990.13312713711   4.06935E-6 
1000.0344584085   5.94099E-6 
1010.0348029926   8.46032E-6 
1020.1351510225    1.1382E-5 
1030.3365025327   1.68076E-5 
1040.639867558   2.34389E-5 
1051.0462662336   3.24642E-5 
1061.556728896   4.39364E-5 
1072.1722961849   6.00877E-5 
1082.8940191468   8.29865E-5 
1093.7229593382  0.000110252 
1104.6601889316 0.0006415845 
1115.7067908209   0.00160292 
1126.8638587291   0.00240296 
1138.1324973164   0.00330776 
1149.5138222896   0.00376356 
1161.0089605125   0.00549625 
1172.6190501176   0.00669922 
1184.3452406188   0.00559717 
1196.188693025    0.0036593 
1208.1505799552   0.00220982 
1220.2320857548   0.00522433 
1232.4344066123    0.0124604 
1244.7587506785    0.0329663 
1257.2063381852    0.0407943 
1269.7784015671    0.0573986 
1282.4761855828    0.0808852 
1295.3009474386    0.0858702 
1308.253956913     0.120449 
1321.3364964821     0.130948 
1334.5498614469     0.167212 
1347.8953600614     0.212698 
1361.374313662     0.230459 
1374.9880567986     0.283077 
1388.7379373666     0.347088 
1402.6253167403     0.450375 
1416.6515699077     0.539578 
1430.8180856068 0.70404270588235 
1445.1262664628 0.82692223076923 
1459.5775291275      1.06419 
1474.1733044187      1.18771 
1488.9150374629      1.69266 
1503.8041878376 1.9925104545455 
1518.8422297159      3.01756 
1534.0306520131     12.23265 
1549.3709585332      21.1453 
1564.8646681186      28.6088 
1580.5133147997     52.34035 
1596.3184479477      61.2707 
1612.2816324272     72.88645 
1628.4044487515      87.9288 
1644.688493239      96.3549 
1661.1353781714 131.08163181818 
1677.7467319531      327.979 
1694.5241992726      584.447 
1711.4694412654     745.5285 
1728.584135678     1173.095 
1745.8699770348      1866.02 
1763.3286768051     1885.565 
1780.9619635732     2769.705 
1798.7715832089     2817.255 
1816.759299041      3269.48 
1834.9268920314      3722.46 
1853.2761609517      5066.25 
1871.8089225613     6376.315 
1890.5270117869      8175.19 
1909.4322819047      8968.65 
1928.5266047238      9460.91 
1947.811870771 15012.863636364 
1967.2899894787 16361.894117647 
1986.9628893735 18837.252380952 
2006.8325182673      18737.6 
2026.9008434499      25563.4 
2047.1698518844      25411.2 
2067.6415504033    38157.185 
2088.3179659073      96984.9 
2109.2011455664       113564 
2130.293157022    113601.55 
2151.5960885923     136543.5 
2173.1120494782       154600 
2194.843169973       154727 
2216.7916016727     173709.5 
2238.9595176894     159177.5 
2261.3491128663     139506.5 
2283.962603995 208811.66666667 
2306.8022300349       161817 
2329.8702523353     57554.45 
2353.1689548586        76769 
2376.7006444072      44560.1 
2400.4676508513     68164.85 
2424.4723273598 249238.66666667 
2448.7170506334       286362 
2473.2042211397 188377.33333333 
2497.9362633511 212900.65217391 
2522.9156259846 165079.66666667 
2548.1447822445       353354 
2573.6262300669       234342 
2599.3624923676 132424.33333333 
2625.3561172913       669413 
2651.6096784642       916530 
2678.1257752488     842737.5 
2704.9070330013 658154.33333333 
2731.9561033313       340159 
2759.2756643647       382825 
2786.8684210083      93692.3 
2814.7371052184       648654 
2842.8844762706 746373.66666667 
2871.3133210333      1265360 
2900.0264542436      1808050 
2929.026718786      1584790 
2958.3169859739      1879190 
2987.9001558336      1953460 
3017.779157392      2096230 
3047.9569489659      2123970 
3078.4365184556      2289750 
3109.2208836401      2264365 
3140.3130924765      2275200 
3171.7162234013      2071890 
3203.4333856353      2129020 
3235.4677194916      2566190 
3267.8223966866      2941655 
3300.5006206534      2889390 
3333.50562686      2777420 
3366.8406831286      2578735 
3400.5090899598      3003350 
3434.5141808594      3281920 
3468.859322668      3264920 
3503.5479158947      3438830 
3538.5833950537      3481385 
3573.9692290042      3168630 
3609.7089212942      3439100 
3645.8060105072      3841090 
3682.2640706123      4282220 
3719.0867113184      4828770 
3756.2775784316      5705140 
3793.8403542159      5475825 
3831.778757758      5419990 
3870.0965453356      5512490 
3908.797510789      4117405 
3947.8854858969      3522945 
3987.3643407558      7214175 
4027.2379841634      7660220 
4067.510364005      7892905 
4108.1854676451      8058425 
4149.2673223215 8303983.3333333 
4190.7599955447      8102535 
4232.6675955002      8058870 
4274.9942714552      6695370 
4317.7442141697      8014490 
4360.9216563114      8499445 
4404.5308728746      8595885 
4448.5761816033 9010033.3333333 
4493.0619434193      9587340 
4537.9925628535      9561625 
4583.3724884821      9497065 
4629.2062133669 9657413.3333333 
4675.4982755006      9414970 
4722.2532582556      9830765 
4769.4757908381 9827536.6666667 
4817.1705487465      9506465 
4865.342254234 9005586.6666667 
4913.9956767763      9467465 
4963.1356335441 9066483.3333333 
5012.7669898795      9124330 
5062.8946597783 9289376.6666667 
5113.5236063761      8806240 
5164.6588424398 8634003.3333333 
5216.3054308642      8888130 
5268.4684851729 8692113.3333333 
5321.1531700246 8814656.6666667 
5374.3647017249      8723090 
5428.1083487421 8874376.6666667 
5482.3894322295 8721823.3333333 
5537.2133265518 8702096.6666667 
5592.5854598173      8746460 
5648.5113144155 8547903.3333333 
5704.9964275597      8641470 
5762.0463918353 8573863.3333333 
5819.6668557536 8583896.6666667 
5877.8635243112 8338643.3333333 
5936.6421595543 8358513.3333333 
5996.0085811498      8204190 
6055.9686669613      8076020 
6116.5283536309 7677346.6666667 
6177.6936371672 7832836.6666667 
6239.4705735389 7627086.6666667 
6301.8652792743 7536023.3333333 
6364.883932067 7475943.3333333 
6428.5327713877      7338820 
6492.8180991016      7268460 
6557.7462800926 6884133.3333333 
6623.3237428935      7135690 
6689.5569803225      7039075 
6756.4525501257 6916343.3333333 
6824.0170756269    6806007.5 
6892.2572463832 6705016.6666667 
6961.179818847    6553752.5 
7030.7916170355      6474650 
7101.0995332059    6314512.5 
7172.1105285379 6148006.6666667 
7243.8316338233    6098757.5 
7316.2699501615 6044363.3333333 
7389.4326496631    5851032.5 
7463.3269761598      5822660 
7537.9602459214    5748892.5 
7613.3398483806      5631260 
7689.4732468644    5528062.5 
7766.367979333    5460547.5 
7844.0316591264    5348722.5 
7922.4719757176      5230335 
8001.6966954748    5146842.5 
8081.7136624296      5068925 
8162.5307990539    4918037.5 
8244.1561070444    4865637.5 
8326.5976681148    4746507.5 
8409.863644796      4623374 
8493.9622812439    4204602.5 
8578.9019040564      4480135 
8664.6909230969      4215686 
8751.3378323279      4383880 
8838.8512106512    4256197.5 
8927.2397227577      4179000 
9016.5121199853    4105477.5 
9106.6772411851      4072188 
9197.744013597      3863560 
9289.721453733      3922466 
9382.6186682703      3787162 
9476.444854953      3700410 
9571.2093035025      3652885 
9666.9213965375      3580822 
9763.5906105029      3528270 
9861.226516608      3450130 
9959.838781774      3386964 
10059.437169592      3281500 
10160.031541288      3239660 
10261.631856701      3183660 
10364.248175268      3117530 
10467.89065702      3030720 
10572.56956359 2948423.3333333 
10678.295259226      2867970 
10785.078211819      2793350 
10892.928993937      2694290 
11001.858283876      2706375 
11111.876866715      2645185 
11222.995635382 2571003.3333333 
11335.225591736      2500450 
11448.577847653      2491560 
11563.06362613      2396630 
11678.694262391      2354550 
11795.481205015      2290530 
11913.436017065 2260093.3333333 
12032.570377236      2203695 
12152.896081008      2182805 
12274.425041818 2127746.6666667 
12397.169292236      2082940 
12521.140985159      2026240 
12646.35239501      1987985 
12772.81591896 1906586.6666667 
12900.54407815 1888193.3333333 
13029.549518932      1848805 
13159.845014121 1802503.3333333 
13291.443464262      1767730 
13424.357898905 1734446.6666667 
13558.601477894      1679230 
13694.187492673      1634010 
13831.129367599      1608860 
13969.440661275      1572370 
14109.135067888      1525600 
14250.226418567 1488233.3333333 
14392.728682753      1434970 
14536.65596958      1414339 
14682.022529276 1369296.6666667 
14828.842754569 1343206.6666667 
14977.131182115 1303246.6666667 
15126.902493936      1280620 
15278.171518875 1243526.6666667 
15430.953234064 1210773.3333333 
15585.262766404 1182693.3333333 
15741.115394068 1133243.3333333 
15898.526548009 1133204.2857143 
16057.511813489      1072750 
16218.086931624      1080360 
16380.26780094      1011690 
16544.07047895      1025345 
16709.511183739       957816 
16876.606295577       959953 
17045.372358532       923151 
17215.826082118     860149.5 
17387.984342939     845558.5 
17561.864186368       823197 
17737.482828232       800437 
17914.857656514     771499.5 
18094.006233079     722883.5 
18274.94629541     711133.5 
18457.695758364       690800 
18642.272715948     652796.5 
18828.695443107       638165 
19016.982397539     623989.5 
19207.152221514       598630 
19399.223743729     564476.5 
19593.215981166       555848 
19789.148140978       537372 
19987.039622388     521493.5 
20186.910018612       499065 
20388.779118798     485651.5 
20592.666909986     466697.5 
20798.593579086       450417 
21006.579514877       435880 
21216.645310025     420884.5 
21428.811763126     408272.5 
21643.099880757       384361 
21859.530879564     374472.5 
22078.12618836       362476 
22298.907450244     351112.5 
22521.896524746     337981.5 
22747.115489993       325007 
22974.586644893     312897.5 
23204.332511342     301288.5 
23436.375836456 290430.33333333 
23670.73959482     278055.5 
23907.446990769     270808.5 
24146.521460676       259461 
24387.986675283     249302.5 
24631.866542036       240918 
24878.185207456     232171.5 
25126.967059531       224083 
25378.236730126     216406.5 
25632.019097427 207599.66666667 
25888.339288402     202344.5 
26147.222681286       191427 
26408.694908098       186460 
26672.781857179       179058 
26939.509675751 175362.33333333 
27208.904772509       168488 
27480.993820234 159921.66666667 
27755.803758436     156483.5 
28033.361796021 151432.66666667 
28313.695413981       145524 
28596.832368121       138409 
28882.800691802       134573 
29171.62869872       129316 
29463.344985707 124685.33333333 
29757.978435564       119952 
30055.55821992 114664.33333333 
30356.113802119       111007 
30659.67494014 107155.66666667 
30966.271689541       103161 
31275.934406437 99644.366666667 
31588.693750501 96196.433333333 
31904.580688006     93002.76 
32223.626494886      89147.9 
32545.862759835      86022.1 
32871.321387434     82259.75 
33200.034601308     79179.05 
33532.034947321      76461.2 
33867.355296794      73864.2 
34206.028849762      70963.6 
34548.08913826      68660.6 
34893.570029642      66511.1 
35242.505729939     63634.85 
35594.930787238      60930.3 
35950.880095111      58518.6 
36310.388896062      56459.3 
36673.492785022     54637.95 
37040.227712872      52323.7 
37410.629990001     49969.15 
37784.736289901     48386.35 
38162.5836528      46654.9 
38544.209489328     44773.55 
38929.651584221     43033.85 
39318.948100064     41437.65 
39712.137581064      39693.6 
40109.258956875     38091.65 
40510.351546444      36948.4 
40915.455061908     35682.65 
41324.609612527      34202.4 
41737.855708653      33043.3 
42155.234265739      31956.4 
42576.786608396     30640.75 
43002.55447448     29210.65 
43432.580019225      27743.6 
43866.905819417 26490.566666667 
44305.574877612      25209.8 
44748.630626388      24435.3 
45196.116932652      23418.5 
45648.078101978 22509.666666667 
46104.558882998      21547.4 
46565.604471828        20935 
47031.260516546      20228.6 
47501.573121712      19445.1 
47976.588852929      18850.2 
48456.354741458 18149.333333333 
48940.918288873     17475.65 
49430.327471761      16826.7 
49924.630746479     16200.95 
50423.877053944      15601.7 
50928.115824483     14991.05 
51437.396982728      14519.7 
51951.770952555      13968.5 
52471.288662081 13500.566666667 
52996.001548702 12937.733333333 
53525.961564189      12487.8 
54061.221179831 12057.933333333 
54601.833391629 11568.766666667 
55147.851725545      11180.8 
55699.330242801      10819.8 
56256.323545229      10402.5 
56818.886780681 9984.5966666667 
57387.075648488 9612.6666666667 
57960.946404973       9246.5 
58540.555869022      8868.44 
59125.961427713      8537.62 
59717.22104199 8241.5466666667 
60314.39325241      7929.52 
60917.537184934 7634.9533333333 
61526.712556783      7364.86 
62141.979682351 7086.5133333333 
62763.399479174 6823.6066666667 
63391.033473966 6592.8933333333 
64024.943808706 6309.1328571429 
64665.193246793      6091.78 
65311.845179261     5886.215 
65964.963631053     5614.935 
66624.613267364      5421.33 
67290.859400038     5228.265 
67963.767994038      5002.13 
68643.405673978      4833.49 
69329.839730718      4672.91 
70023.138128025     4468.285 
70723.369509305     4277.635 
71430.603204399      4138.37 
72144.909236443      4004.57 
72866.358328807     3838.105 
73595.021912095      3677.81 
74330.972131216      3506.12 
75074.281852528     3382.405 
75825.024671053      3279.94 
76583.274917764     3180.545 
77349.107666942      3053.67 
78122.598743611     2934.575 
78903.824731047     2819.905 
79692.862978358      2710.28 
80489.791608141     2606.405 
81294.689524223      2505.33 
82107.636419465      2413.81 
82928.712783659     2323.095 
83757.999911496     2237.565 
84595.579910611 2136.8133333333 
85441.535709717     2040.515 
86295.951066814      1966.64 
87158.910577482     1895.635 
88030.499683257      1830.74 
88910.80468009      1767.23 
89799.912726891      1691.49 
90697.91185416      1619.11 
91604.890972701      1565.48 
92520.939882428 1500.3566666667 
93446.149281253      1437.21 
94380.610774065     1391.095 
95324.416881806 1334.6933333333 
96277.661050624      1281.43 
97240.43766113 1230.0433333333 
98212.842037741      1182.24 
99194.970458119      1144.98 
100186.9201627      1118.37 
199060.83304441      72.3057 
399467.9878358      4.52947 
594753.39981818      0.88899 
793700.71765891     0.279363 
997811.18987739     0.113724 
1193529.3359837    0.0545448 
1399507.0114645    0.0293004 
