#  WAVELENGTH	        FLUX	
#  (ANGSTROM)	(ERG/CM2/S/A)	
############	############	
498.3320276611  7.08269E-25 
503.31534793771  2.26565E-24 
508.34850141708  5.96647E-24 
518.56630629557  1.79936E-23 
528.98948905211   6.8478E-23 
539.62217778206   2.4366E-22 
545.01839955988  8.35234E-22 
555.97326939103    2.717E-21 
567.14833210579    8.457E-21 
578.54801358112  2.49724E-20 
584.33349371693  7.24317E-20 
596.07859694064  2.00107E-19 
608.05977673914  5.33759E-19 
614.14037450653   1.3754E-18 
626.48459603412  3.43223E-18 
639.0769364144  8.30995E-18 
645.46770577855  1.95392E-17 
651.92238283633   3.7945E-17 
658.44160666469  6.68321E-17 
671.67628295866  1.46914E-16 
678.39304578824  3.15106E-16 
692.02874600859  6.59657E-16 
698.94903346867  1.34691E-15 
712.99790904139  2.89373E-15 
720.12788813181   5.6635E-15 
734.60245868325  1.01905E-14 
741.94848327009  1.92212E-14 
749.36796810279  3.55974E-14 
764.43026426165  6.48178E-14 
772.07456690427  1.15944E-13 
779.79531257331  2.04234E-13 
787.59326569905  3.51752E-13 
803.4238903396  6.03036E-13 
811.45812924299  1.01688E-12 
819.57271053542  1.68825E-12 
827.76843764078  2.76578E-12 
844.40658323736  4.47269E-12 
852.85064906973  7.14525E-12 
861.37915556043  1.12744E-11 
869.99294711603  1.75649E-11 
878.69287658719  2.71303E-11 
887.47980535306  4.14103E-11 
896.3546034066  6.25289E-11 
914.37133093507   1.24076E-7 
923.51504424442    4.9309E-7 
932.75019468686   6.94271E-7 
942.07769663373   1.07439E-6 
951.49847360007   1.64026E-6 
961.01345833607   2.46539E-6 
970.62359291943   3.38034E-6 
980.32982884862   4.89324E-6 
990.13312713711   6.88941E-6 
1000.0344584085   1.02304E-5 
1010.0348029926   1.40855E-5 
1020.1351510225   1.82846E-5 
1030.3365025327   2.77016E-5 
1040.639867558   3.88003E-5 
1051.0462662336   5.04362E-5 
1061.556728896   6.96148E-5 
1072.1722961849   9.43108E-5 
1082.8940191468  0.000127011 
1093.7229593382  0.000162355 
1104.6601889316  0.000334911 
1115.7067908209  0.000555767 
1126.8638587291  0.000775524 
1138.1324973164   0.00101161 
1149.5138222896   0.00124694 
1161.0089605125   0.00163763 
1172.6190501176   0.00208751 
1184.3452406188  0.002601345 
1196.188693025   0.00309473 
1208.1505799552   0.00232606 
1220.2320857548   0.00460424 
1232.4344066123    0.0068004 
1244.7587506785   0.00951611 
1257.2063381852    0.0123861 
1269.7784015671    0.0150708 
1282.4761855828   0.01993835 
1295.3009474386    0.0255169 
1308.253956913    0.0317468 
1321.3364964821    0.0362176 
1334.5498614469    0.0477968 
1347.8953600614    0.0630173 
1361.374313662    0.0731554 
1374.9880567986   0.09385615 
1388.7379373666     0.119551 
1402.6253167403    0.1567445 
1416.6515699077     0.197027 
1430.8180856068 0.24973970588235 
1445.1262664628 0.30984115384615 
1459.5775291275     0.386714 
1474.1733044187     0.466879 
1488.9150374629     0.613312 
1503.8041878376 0.75861859090909 
1518.8422297159      1.03502 
1534.0306520131     3.675665 
1549.3709585332      6.69461 
1564.8646681186      9.93398 
1580.5133147997      17.8901 
1596.3184479477      21.4307 
1612.2816324272     25.39005 
1628.4044487515       33.056 
1644.688493239      40.8473 
1661.1353781714 55.816490909091 
1677.7467319531      133.059 
1694.5241992726      236.526 
1711.4694412654     288.8365 
1728.584135678     467.1395 
1745.8699770348      722.056 
1763.3286768051      700.874 
1780.9619635732     1040.143 
1798.7715832089      1235.27 
1816.759299041       1513.2 
1834.9268920314      1434.72 
1853.2761609517       1911.9 
1871.8089225613     2366.795 
1890.5270117869     3144.315 
1909.4322819047     3569.825 
1928.5266047238      3551.89 
1947.811870771      5656.34 
1967.2899894787 6362.7864705882 
1986.9628893735 6939.2219047619 
2006.8325182673      7131.97 
2026.9008434499     9353.015 
2047.1698518844      10563.2 
2067.6415504033    12421.535 
2088.3179659073      28518.9 
2109.2011455664     46198.65 
2130.293157022      56300.1 
2151.5960885923     56782.35 
2173.1120494782      65511.1 
2194.843169973 68087.466666667 
2216.7916016727      95993.5 
2238.9595176894      95268.1 
2261.3491128663      67667.8 
2283.962603995     104904.7 
2306.8022300349     96312.65 
2329.8702523353     70866.75 
2353.1689548586 86046.533333333 
2376.7006444072     61991.35 
2400.4676508513     75336.15 
2424.4723273598 154229.33333333 
2448.7170506334     174963.5 
2473.2042211397      90942.5 
2497.9362633511 96461.686956522 
2522.9156259846 79463.718518519 
2548.1447822445     232915.5 
2573.6262300669 307014.66666667 
2599.3624923676 237954.33333333 
2625.3561172913       763006 
2651.6096784642 994386.66666667 
2678.1257752488     895575.5 
2704.9070330013 627590.33333333 
2731.9561033313 420331.66666667 
2759.2756643647       525779 
2786.8684210083     157567.5 
2814.7371052184 662013.66666667 
2842.8844762706 317517.66666667 
2871.3133210333 1092402.3333333 
2900.0264542436      1914680 
2929.026718786      1629200 
2958.3169859739      1607560 
2987.9001558336      1557155 
3017.779157392      1779400 
3047.9569489659      1968495 
3078.4365184556      1866980 
3109.2208836401      2212375 
3140.3130924765      2178880 
3171.7162234013      1996880 
3203.4333856353      1981430 
3235.4677194916      2644190 
3267.8223966866      3173650 
3300.5006206534      2872280 
3333.50562686      2779730 
3366.8406831286      2151950 
3400.5090899598      2485810 
3434.5141808594      2668110 
3468.859322668      3002720 
3503.5479158947      3210075 
3538.5833950537      2973715 
3573.9692290042      2447350 
3609.7089212942      3102574 
3645.8060105072 3842226.6666667 
3682.2640706123      3713005 
3719.0867113184      2637265 
3756.2775784316      3643650 
3793.8403542159      2618765 
3831.778757758      2473150 
3870.0965453356      3298230 
3908.797510789      3027805 
3947.8854858969      3042990 
3987.3643407558      5339110 
4027.2379841634      5283885 
4067.510364005      5427640 
4108.1854676451      5678070 
4149.2673223215      5428250 
4190.7599955447      5331120 
4232.6675955002      5115295 
4274.9942714552      4068590 
4317.7442141697      5532775 
4360.9216563114      5604620 
4404.5308728746      6048685 
4448.5761816033 6567183.3333333 
4493.0619434193      7141460 
4537.9925628535      7251630 
4583.3724884821      7150350 
4629.2062133669 7249793.3333333 
4675.4982755006      7138090 
4722.2532582556      7396075 
4769.4757908381 7446123.3333333 
4817.1705487465      7303980 
4865.342254234      6873340 
4913.9956767763      7108155 
4963.1356335441 6867326.6666667 
5012.7669898795      6881045 
5062.8946597783      6992360 
5113.5236063761      6647525 
5164.6588424398 6015036.6666667 
5216.3054308642      6892755 
5268.4684851729 6794573.3333333 
5321.1531700246 6829473.3333333 
5374.3647017249      6773495 
5428.1083487421 6926676.6666667 
5482.3894322295 6880706.6666667 
5537.2133265518 6824146.6666667 
5592.5854598173      6893155 
5648.5113144155 6823146.6666667 
5704.9964275597 6887183.3333333 
5762.0463918353 6851986.6666667 
5819.6668557536 6885093.3333333 
5877.8635243112 6551706.6666667 
5936.6421595543 6735306.6666667 
5996.0085811498 6633566.6666667 
6055.9686669613      6541320 
6116.5283536309 6188746.6666667 
6177.6936371672 6351936.6666667 
6239.4705735389      6226210 
6301.8652792743 6149743.3333333 
6364.883932067 6113126.6666667 
6428.5327713877      5989335 
6492.8180991016      5980410 
6557.7462800926 5752056.6666667 
6623.3237428935 5868286.6666667 
6689.5569803225    5810462.5 
6756.4525501257 5716553.3333333 
6824.0170756269    5635517.5 
6892.2572463832 5554053.3333333 
6961.179818847    5438197.5 
7030.7916170355 5378003.3333333 
7101.0995332059    5258372.5 
7172.1105285379      5128790 
7243.8316338233      5105360 
7316.2699501615 5059426.6666667 
7389.4326496631    4913582.5 
7463.3269761598      4909130 
7537.9602459214      4837390 
7613.3398483806 4746433.3333333 
7689.4732468644    4676912.5 
7766.367979333    4640487.5 
7844.0316591264      4550425 
7922.4719757176      4425380 
8001.6966954748      4369715 
8081.7136624296      4293385 
8162.5307990539    4172617.5 
8244.1561070444    4153367.5 
8326.5976681148    4043632.5 
8409.863644796      3980014 
8493.9622812439    3709557.5 
8578.9019040564    3847477.5 
8664.6909230969      3655466 
8751.3378323279      3700820 
8838.8512106512      3662190 
8927.2397227577      3572576 
9016.5121199853    3526337.5 
9106.6772411851      3455570 
9197.744013597      3317660 
9289.721453733      3324968 
9382.6186682703      3217368 
9476.444854953      3175122 
9571.2093035025    3129952.5 
9666.9213965375      3076468 
9763.5906105029      3027280 
9861.226516608      2978350 
9959.838781774      2934990 
10059.437169592      2863325 
10160.031541288      2807180 
10261.631856701      2765360 
10364.248175268      2710920 
10467.89065702      2658115 
10572.56956359      2577660 
10678.295259226      2513330 
10785.078211819      2434195 
10892.928993937      2365985 
11001.858283876      2343625 
11111.876866715      2307680 
11222.995635382 2257043.3333333 
11335.225591736      2199600 
11448.577847653      2193720 
11563.06362613      2125820 
11678.694262391      2094560 
11795.481205015      2035195 
11913.436017065      1999920 
12032.570377236      1958590 
12152.896081008      1955170 
12274.425041818 1908476.6666667 
12397.169292236      1870045 
12521.140985159      1832020 
12646.35239501      1793015 
12772.81591896 1733336.6666667 
12900.54407815 1713803.3333333 
13029.549518932      1678345 
13159.845014121      1642030 
13291.443464262      1614420 
13424.357898905 1592566.6666667 
13558.601477894      1544170 
13694.187492673 1516726.6666667 
13831.129367599      1491115 
13969.440661275 1458426.6666667 
14109.135067888      1412660 
14250.226418567 1380646.6666667 
14392.728682753 1344236.6666667 
14536.65596958      1324747 
14682.022529276      1286790 
14828.842754569      1261200 
14977.131182115 1220406.6666667 
15126.902493936 1219443.3333333 
15278.171518875      1196260 
15430.953234064      1166340 
15585.262766404 1140566.6666667 
15741.115394068 1083456.6666667 
15898.526548009 1079381.4285714 
16057.511813489      1048310 
16218.086931624      1031850 
16380.26780094       993467 
16544.07047895     982869.5 
16709.511183739       926576 
16876.606295577       922554 
17045.372358532     883582.5 
17215.826082118     832724.5 
17387.984342939       813905 
17561.864186368       793617 
17737.482828232       771291 
17914.857656514       742180 
18094.006233079       699732 
18274.94629541     680401.5 
18457.695758364       664382 
18642.272715948     626501.5 
18828.695443107       612103 
19016.982397539       598209 
19207.152221514       573205 
19399.223743729     542853.5 
19593.215981166     531746.5 
19789.148140978       514796 
19987.039622388       501271 
20186.910018612     478386.5 
20388.779118798       466419 
20592.666909986       447521 
20798.593579086     431542.5 
21006.579514877       419311 
21216.645310025       404909 
21428.811763126     392299.5 
21643.099880757 369142.66666667 
21859.530879564       359012 
22078.12618836     348724.5 
22298.907450244     336977.5 
22521.896524746     325309.5 
22747.115489993 310996.66666667 
22974.586644893     299259.5 
23204.332511342       284979 
23436.375836456 275436.66666667 
23670.73959482     262262.5 
23907.446990769       257807 
24146.521460676 245710.33333333 
24387.986675283       235397 
24631.866542036 227899.66666667 
24878.185207456     221413.5 
25126.967059531       213173 
25378.236730126     204851.5 
25632.019097427 198105.33333333 
25888.339288402       192322 
26147.222681286 183323.66666667 
26408.694908098 176831.66666667 
26672.781857179     172587.5 
26939.509675751 166931.33333333 
27208.904772509 160456.33333333 
27480.993820234 153555.33333333 
27755.803758436     149112.5 
28033.361796021 144375.66666667 
28313.695413981       138797 
28596.832368121 133004.66666667 
28882.800691802       128483 
29171.62869872 123258.33333333 
29463.344985707 118978.33333333 
29757.978435564 114433.33333333 
30055.55821992       109948 
30356.113802119 106023.66666667 
30659.67494014 102302.66666667 
30966.271689541 98480.933333333 
31275.934406437 95113.333333333 
31588.693750501 91762.666666667 
31904.580688006     88749.32 
32223.626494886     84995.35 
32545.862759835      82044.2 
32871.321387434     78819.35 
33200.034601308     75555.05 
33532.034947321      73090.9 
33867.355296794     70450.35 
34206.028849762      67700.6 
34548.08913826      65491.2 
34893.570029642      63418.7 
35242.505729939     60664.35 
35594.930787238     58060.05 
35950.880095111     55800.65 
36310.388896062      53784.3 
36673.492785022      52005.9 
37040.227712872     49846.95 
37410.629990001      47716.9 
37784.736289901        46115 
38162.5836528     44468.05 
38544.209489328      42627.8 
38929.651584221     41101.25 
39318.948100064      39425.4 
39712.137581064     37808.45 
40109.258956875     36413.65 
40510.351546444      35152.2 
40915.455061908     33948.05 
41324.609612527        32666 
41737.855708653      31390.5 
42155.234265739      30403.6 
42576.786608396     29050.45 
43002.55447448        27553 
43432.580019225      26095.3 
43866.905819417 24773.966666667 
44305.574877612     23499.85 
44748.630626388     22795.35 
45196.116932652      21754.1 
45648.078101978      20938.4 
46104.558882998     20092.25 
46565.604471828     19569.35 
47031.260516546 18875.633333333 
47501.573121712      18150.7 
47976.588852929     17617.65 
48456.354741458        16969 
48940.918288873     16340.25 
49430.327471761 15740.233333333 
49924.630746479      15161.8 
50423.877053944      14613.1 
50928.115824483      14074.2 
51437.396982728 13624.866666667 
51951.770952555      13105.3 
52471.288662081 12693.466666667 
52996.001548702 12160.566666667 
53525.961564189     11754.35 
54061.221179831 11348.066666667 
54601.833391629 10894.933333333 
55147.851725545      10552.4 
55699.330242801 10206.966666667 
56256.323545229 9816.0033333333 
56818.886780681      9433.49 
57387.075648488 9083.3933333333 
57960.946404973      8737.26 
58540.555869022 8395.0366666667 
59125.961427713 8090.6666666667 
59717.22104199      7799.95 
60314.39325241 7503.2333333333 
60917.537184934 7226.0866666667 
61526.712556783      6979.41 
62141.979682351 6710.7633333333 
62763.399479174 6479.9333333333 
63391.033473966 6252.9233333333 
64024.943808706 5985.0571428571 
64665.193246793      5780.51 
65311.845179261      5588.72 
65964.963631053      5332.14 
66624.613267364       5148.1 
67290.859400038     4971.895 
67963.767994038      4752.16 
68643.405673978      4592.61 
69329.839730718      4440.48 
70023.138128025      4244.76 
70723.369509305      4064.65 
71430.603204399      3932.95 
72144.909236443     3806.705 
72866.358328807      3646.78 
73595.021912095      3494.92 
74330.972131216      3344.98 
75074.281852528      3214.48 
75825.024671053      3116.76 
76583.274917764      3021.88 
77349.107666942     2902.765 
78122.598743611     2788.385 
78903.824731047     2679.455 
79692.862978358     2575.155 
80489.791608141     2476.215 
81294.689524223     2381.335 
82107.636419465      2293.54 
82928.712783659     2207.305 
83757.999911496      2126.29 
84595.579910611 2030.2933333333 
85441.535709717      1938.84 
86295.951066814      1869.86 
87158.910577482      1803.36 
88030.499683257     1739.045 
88910.80468009       1678.8 
89799.912726891      1606.96 
90697.91185416     1538.145 
91604.890972701     1487.205 
92520.939882428 1425.3733333333 
93446.149281253      1366.54 
94380.610774065     1321.585 
95324.416881806      1268.08 
96277.661050624      1217.22 
97240.43766113 1168.2633333333 
98212.842037741      1123.09 
99194.970458119     1087.685 
100186.9201627      1062.61 
199060.83304441      68.7043 
399467.9878358       4.3079 
594753.39981818      0.84668 
793700.71765891     0.266343 
997811.18987739      0.10848 
1193529.3359837     0.052041 
1399507.0114645     0.027953 
