#  WAVELENGTH	        FLUX	
#  (ANGSTROM)	(ERG/CM2/S/A)	
############	############	
        90.9   6.97992E-5 
    92.72709   0.00019734 
95.53681355409   0.00051758 
97.457103506527  0.000939607 
99.415991287008   0.00182483 
101.41425271188   0.00407763 
103.45267919139   0.00728046 
105.53207804313    0.0127481 
107.6532728118    0.0239375 
109.81710359532    0.0519528 
113.14467165136     0.137885 
117.73879903054     0.360854 
120.10534889105      0.83646 
123.7446610678      1.83723 
126.23192875526      3.01489 
127.49424804281      4.02972 
130.05688242847      6.15147 
131.35745125276      8.93184 
132.67102576529      11.9462 
135.33771338317      19.5759 
139.43858143639      34.9357 
142.24129692326      62.6548 
146.55135046134      112.337 
150.99200293167      208.762 
154.02694219059      382.766 
158.69411256591      632.394 
161.88386422848      1094.39 
165.13772989948      1833.48 
170.14156825316      2970.63 
171.84298393569      4179.83 
175.2970279128      6191.82 
178.82049817385       8970.9 
180.60870315558      10037.6 
186.0813274699      16303.5 
189.82156215205      25582.5 
193.6369755513        34775 
197.52907875988      51594.3 
201.49941324296      65213.9 
203.51440737539      88145.6 
209.68109743327       134393 
216.03464436659       201468 
218.19499081026       263326 
222.58071012555       319291 
224.8065172268       406135 
229.32512822306     55783900 
233.93456330034    243943000 
238.63664802268    395102000 
245.86757709442   1068330000 
250.80951539401   4411540000 
255.85078665343  10563900000 
258.40929451997   9862990000 
263.60332133982  38181300000 
266.23935455322  44732300000 
271.59076557974  53420600000 
277.04973996789  35004400000 
282.61843974125  67301900000 
288.29907038004 101834000000 
294.09388169468  81270400000 
300.00516871675  52371600000 
306.03527260795  70847600000 
315.30844740325  21072100000 
324.86260866801  28151100000 
334.70627057326  18706600000 
344.8482052779  19687300000 
355.29745074603  52181000000 
362.43892950602 109113000000 
373.42119150899 138698000000 
384.7362270329 111478000000 
392.46942519626 189409000000 
404.36164124913 287535000000 
412.48931023824 278708000000 
420.78034537403 250302000000 
429.23803031605 235349000000 
437.8657147254 291360000000 
446.66681559138 294215000000 
455.64481858477 244875000000 
469.4513122327 268503000000 
478.88728360858 301516000000 
488.51291800911 240317000000 
498.3320276611 335033000000 
503.31534793771 265690000000 
508.34850141708 330794000000 
518.56630629557 308657000000 
528.98948905211 283024000000 
539.62217778206 228751000000 
545.01839955988 187257000000 
555.97326939103 246689000000 
567.14833210579 286589000000 
578.54801358112 282615000000 
584.33349371693 279263000000 
596.07859694064 238114000000 
608.05977673914 196211000000 
614.14037450653 252382000000 
626.48459603412 220628000000 
639.0769364144 255903000000 
645.46770577855 236194000000 
651.92238283633 209211000000 
658.44160666469 240823000000 
671.67628295866 240570000000 
678.39304578824 212329000000 
692.02874600859 229872000000 
698.94903346867 200582000000 
712.99790904139 218650000000 
720.12788813181 220574000000 
734.60245868325 215184000000 
741.94848327009 202712000000 
749.36796810279 195825000000 
764.43026426165 171858000000 
772.07456690427 187881000000 
779.79531257331 162589000000 
787.59326569905 177527000000 
803.4238903396 179417000000 
811.45812924299 175642000000 
819.57271053542 173447000000 
827.76843764078 154966000000 
844.40658323736 163904000000 
852.85064906973 153460000000 
861.37915556043 158678000000 
869.99294711603 156720000000 
878.69287658719 150827000000 
887.47980535306 147212000000 
896.3546034066 141516000000 
914.37133093507 106325000000 
923.51504424442 160220000000 
932.75019468686 197629000000 
942.07769663373 213068000000 
951.49847360007 236813000000 
961.01345833607 241919000000 
970.62359291943 196036000000 
980.32982884862 217905000000 
990.13312713711 193981000000 
1000.0344584085 195242000000 
1010.0348029926 196628000000 
1020.1351510225 183678000000 
1030.3365025327 201897000000 
1040.639867558 203754000000 
1051.0462662336 198559000000 
1061.556728896 188195000000 
1072.1722961849 190386000000 
1082.8940191468 176853000000 
1093.7229593382 180186000000 
1104.6601889316 174324500000 
1115.7067908209 166334000000 
1126.8638587291 167396000000 
1138.1324973164 165560000000 
1149.5138222896 157817000000 
1161.0089605125 148649000000 
1172.6190501176 136402000000 
1184.3452406188 139351500000 
1196.188693025 133327000000 
1208.1505799552 115480000000 
1220.2320857548 126175000000 
1232.4344066123 120195000000 
1244.7587506785 117358000000 
1257.2063381852 117844000000 
1269.7784015671 116417000000 
1282.4761855828 113832000000 
1295.3009474386 108668000000 
1308.253956913 106687000000 
1321.3364964821 104194000000 
1334.5498614469 101011050000 
1347.8953600614  95590900000 
1361.374313662  91057500000 
1374.9880567986  87376150000 
1388.7379373666  85119500000 
1402.6253167403  83630550000 
1416.6515699077  81567500000 
1430.8180856068 81353194117.647 
1445.1262664628 77449515384.615 
1459.5775291275  75747100000 
1474.1733044187  75038650000 
1488.9150374629  72720700000 
1503.8041878376 70621922727.273 
1518.8422297159  68993600000 
1534.0306520131  60642050000 
1549.3709585332  56889200000 
1564.8646681186  61141350000 
1580.5133147997  59632900000 
1596.3184479477  57101200000 
1612.2816324272  55568800000 
1628.4044487515  54958900000 
1644.688493239  52905450000 
1661.1353781714 52056168181.818 
1677.7467319531  52000200000 
1694.5241992726  50552350000 
1711.4694412654  47247550000 
1728.584135678  47360450000 
1745.8699770348  45911700000 
1763.3286768051  44629200000 
1780.9619635732  43183900000 
1798.7715832089  41430450000 
1816.759299041  40351200000 
1834.9268920314  39524650000 
1853.2761609517  38307950000 
1871.8089225613  36850600000 
1890.5270117869  36047950000 
1909.4322819047  34475700000 
1928.5266047238  33764700000 
1947.811870771 32406309090.909 
1967.2899894787 31516311764.706 
1986.9628893735 30572757142.857 
2006.8325182673  29625900000 
2026.9008434499  28490100000 
2047.1698518844  21035550000 
2067.6415504033  21968435000 
2088.3179659073  25429900000 
2109.2011455664  25076000000 
2130.293157022  24350600000 
2151.5960885923  23454350000 
2173.1120494782  22967900000 
2194.843169973 22233133333.333 
2216.7916016727  21639350000 
2238.9595176894  20693200000 
2261.3491128663  20379900000 
2283.962603995 19314666666.667 
2306.8022300349  18830400000 
2329.8702523353  18315300000 
2353.1689548586 17532966666.667 
2376.7006444072  16530900000 
2400.4676508513  16291250000 
2424.4723273598 15866333333.333 
2448.7170506334  15239150000 
2473.2042211397  14516200000 
2497.9362633511 13910208695.652 
2522.9156259846 13763859259.259 
2548.1447822445  13381200000 
2573.6262300669 12852233333.333 
2599.3624923676 12387766666.667 
2625.3561172913  12006950000 
2651.6096784642  11590300000 
2678.1257752488  11207800000 
2704.9070330013 10894166666.667 
2731.9561033313 10377666666.667 
2759.2756643647 10051886666.667 
2786.8684210083   9720155000 
2814.7371052184   9431810000 
2842.8844762706 9082593333.3333 
2871.3133210333 8728753333.3333 
2900.0264542436   8489670000 
2929.026718786   8200010000 
2958.3169859739   7888320000 
2987.9001558336   7588905000 
3017.779157392   7289720000 
3047.9569489659   7045645000 
3078.4365184556   6833380000 
3109.2208836401   6598180000 
3140.3130924765   6314095000 
3171.7162234013   6108840000 
3203.4333856353   5857495000 
3235.4677194916   5716680000 
3267.8223966866   5501970000 
3300.5006206534   5277310000 
3333.50562686   5079020000 
3366.8406831286   4934820000 
3400.5090899598   4730245000 
3434.5141808594   4571720000 
3468.859322668   4445710000 
3503.5479158947   4270635000 
3538.5833950537   4095795000 
3573.9692290042   3973060000 
3609.7089212942   3818774000 
3645.8060105072 3289733333.3333 
3682.2640706123   3202125000 
3719.0867113184   3198650000 
3756.2775784316   3222675000 
3793.8403542159   3155330000 
3831.778757758   3136235000 
3870.0965453356   2883470000 
3908.797510789   2976000000 
3947.8854858969   2782300000 
3987.3643407558   2778365000 
4027.2379841634   2660510000 
4067.510364005   2559150000 
4108.1854676451   2417895000 
4149.2673223215 2383186666.6667 
4190.7599955447   2267145000 
4232.6675955002   2205435000 
4274.9942714552   2128130000 
4317.7442141697   1976960000 
4360.9216563114   1978830000 
4404.5308728746   1913335000 
4448.5761816033 1835933333.3333 
4493.0619434193   1759050000 
4537.9925628535   1689910000 
4583.3724884821   1650635000 
4629.2062133669   1574500000 
4675.4982755006   1497845000 
4722.2532582556   1477865000 
4769.4757908381 1419596666.6667 
4817.1705487465   1353920000 
4865.342254234 1286726666.6667 
4913.9956767763   1263320000 
4963.1356335441   1216520000 
5012.7669898795   1171415000 
5062.8946597783 1129033333.3333 
5113.5236063761   1087620000 
5164.6588424398 1048973333.3333 
5216.3054308642   1011170000 
5268.4684851729 975518666.66667 
5321.1531700246    934970000 
5374.3647017249    894230000 
5428.1083487421 871447666.66667 
5482.3894322295 835768333.33333 
5537.2133265518 801291333.33333 
5592.5854598173    775395500 
5648.5113144155 745940666.66667 
5704.9964275597    669091000 
5762.0463918353 643719333.33333 
5819.6668557536 626393333.33333 
5877.8635243112 614748666.66667 
5936.6421595543    606492000 
5996.0085811498 591866333.33333 
6055.9686669613 571021666.66667 
6116.5283536309 549880666.66667 
6177.6936371672    530119000 
6239.4705735389    511709000 
6301.8652792743 492253333.33333 
6364.883932067 474435333.33333 
6428.5327713877    456503750 
6492.8180991016 434669666.66667 
6557.7462800926    413522000 
6623.3237428935 408030333.33333 
6689.5569803225    390756250 
6756.4525501257    377047000 
6824.0170756269    361113000 
6892.2572463832 348531666.66667 
6961.179818847    335264000 
7030.7916170355 322461666.66667 
7101.0995332059    309790750 
7172.1105285379 298642333.33333 
7243.8316338233    288253000 
7316.2699501615    277837000 
7389.4326496631    267778750 
7463.3269761598    256940500 
7537.9602459214    245563500 
7613.3398483806    238048000 
7689.4732468644    229675750 
7766.367979333    220869250 
7844.0316591264    212229000 
7922.4719757176    204146750 
8001.6966954748    196419000 
8081.7136624296    189050750 
8162.5307990539    177163000 
8244.1561070444    167014000 
8326.5976681148    161129000 
8409.863644796    155327200 
8493.9622812439    150147500 
8578.9019040564    146024000 
8664.6909230969    141339200 
8751.3378323279    138175750 
8838.8512106512    132519750 
8927.2397227577    128170400 
9016.5121199853    123702250 
9106.6772411851    119755600 
9197.744013597    112993000 
9289.721453733    110455000 
9382.6186682703    106576600 
9476.444854953    100471480 
9571.2093035025     98573950 
9666.9213965375     95008180 
9763.5906105029     91217540 
9861.226516608     87830240 
9959.838781774 84163273.333333 
10059.437169592     79846450 
10160.031541288     78468900 
10261.631856701     75496550 
10364.248175268     72509450 
10467.89065702     70060900 
10572.56956359 66896166.666667 
10678.295259226     63897800 
10785.078211819     61561750 
10892.928993937     58203350 
11001.858283876     57364950 
11111.876866715     55396700 
11222.995635382 53043566.666667 
11335.225591736     50800550 
11448.577847653     49089050 
11563.06362613 46739733.333333 
11678.694262391     45116200 
11795.481205015     43636250 
11913.436017065     41867300 
12032.570377236     40198400 
12152.896081008     38924450 
12274.425041818     37398400 
12397.169292236     35941650 
12521.140985159 34558366.666667 
12646.35239501     33237100 
12772.81591896 31512166.666667 
12900.54407815 30550666.666667 
13029.549518932     29419550 
13159.845014121 28341566.666667 
13291.443464262     27309100 
13424.357898905 26325833.333333 
13558.601477894 25202733.333333 
13694.187492673 24138566.666667 
13831.129367599     23292400 
13969.440661275 22485666.666667 
14109.135067888 21561633.333333 
14250.226418567 20682233.333333 
14392.728682753 19852366.666667 
14536.65596958 19064116.666667 
14682.022529276     18245500 
14828.842754569     17599800 
14977.131182115 16918033.333333 
15126.902493936     16269900 
15278.171518875 15649566.666667 
15430.953234064 15058033.333333 
15585.262766404     14498400 
15741.115394068 13963866.666667 
15898.526548009 13404657.142857 
16057.511813489     12848600 
16218.086931624     12433650 
16380.26780094     11915800 
16544.07047895     11583050 
16709.511183739     10971950 
16876.606295577     10664400 
17045.372358532     10296400 
17215.826082118      9759500 
17387.984342939      9392245 
17561.864186368      9085150 
17737.482828232      8786065 
17914.857656514      8405495 
18094.006233079      7963765 
18274.94629541      7703975 
18457.695758364      7460550 
18642.272715948      7091545 
18828.695443107      6928050 
19016.982397539      6644030 
19207.152221514      6374305 
19399.223743729      6049810 
19593.215981166      5877115 
19789.148140978      5645960 
19987.039622388      5426170 
20186.910018612      5216895 
20388.779118798      5017250 
20592.666909986      4825670 
20798.593579086      4646540 
21006.579514877      4473575 
21216.645310025      4309365 
21428.811763126      4151735 
21643.099880757 3930936.6666667 
21859.530879564      3789435 
22078.12618836      3655445 
22298.907450244      3527270 
22521.896524746      3404755 
22747.115489993      3261300 
22974.586644893      3123855 
23204.332511342      3018505 
23436.375836456 2893183.3333333 
23670.73959482      2773855 
23907.446990769      2682945 
24146.521460676      2574550 
24387.986675283      2471395 
24631.866542036      2373410 
24878.185207456      2280215 
25126.967059531 2191263.3333333 
25378.236730126      2107200 
25632.019097427      2025630 
25888.339288402      1949240 
26147.222681286 1855363.3333333 
26408.694908098      1793730 
26672.781857179      1722045 
26939.509675751      1665480 
27208.904772509 1593733.3333333 
27480.993820234      1519630 
27755.803758436      1471965 
28033.361796021      1420580 
28313.695413981 1361716.6666667 
28596.832368121      1298400 
28882.800691802 1252856.6666667 
29171.62869872 1202503.3333333 
29463.344985707 1154636.6666667 
29757.978435564 1109146.6666667 
30055.55821992 1060773.3333333 
30356.113802119 1021973.3333333 
30659.67494014       985401 
30966.271689541 948016.66666667 
31275.934406437       912380 
31588.693750501       878400 
31904.580688006     847041.4 
32223.626494886       810066 
32545.862759835       780666 
32871.321387434     746718.5 
33200.034601308       717703 
33532.034947321       692431 
33867.355296794       668362 
34206.028849762     637817.5 
34548.08913826       615960 
34893.570029642       595160 
35242.505729939       568693 
35594.930787238     543694.5 
35950.880095111       520029 
36310.388896062       503091 
36673.492785022       486920 
37040.227712872       464629 
37410.629990001       444075 
37784.736289901     428172.5 
38162.5836528       410599 
38544.209489328     393892.5 
38929.651584221     377852.5 
39318.948100064       362978 
39712.137581064       348456 
40109.258956875     331940.5 
40510.351546444       322034 
40915.455061908     309675.5 
41324.609612527     297188.5 
41737.855708653       286681 
42155.234265739       275995 
42576.786608396     265780.5 
43002.55447448     256056.5 
43432.580019225     245962.5 
43866.905819417 235599.33333333 
44305.574877612       225327 
44748.630626388       217432 
45196.116932652       209852 
45648.078101978 200833.66666667 
46104.558882998       190212 
46565.604471828       184493 
47031.260516546       178011 
47501.573121712     170642.5 
47976.588852929       165024 
48456.354741458 158337.33333333 
48940.918288873       151960 
49430.327471761       145922 
49924.630746479       140160 
50423.877053944 134697.66666667 
50928.115824483     128442.5 
51437.396982728 124503.33333333 
51951.770952555       119798 
52471.288662081 115301.66666667 
52996.001548702 110172.33333333 
53525.961564189       106106 
54061.221179831 102239.66666667 
54601.833391629      97820.3 
55147.851725545      94312.9 
55699.330242801      90972.8 
56256.323545229 87149.866666667 
56818.886780681      83497.5 
57387.075648488 80086.466666667 
57960.946404973      76827.3 
58540.555869022 73202.033333333 
59125.961427713 70675.066666667 
59717.22104199 67990.033333333 
60314.39325241      65326.6 
60917.537184934 62792.033333333 
61526.712556783      60378.3 
62141.979682351      58071.5 
62763.399479174 55756.533333333 
63391.033473966 53799.666666667 
64024.943808706      51394.4 
64665.193246793      49594.7 
65311.845179261      47798.3 
65964.963631053     45521.55 
66624.613267364      43898.3 
67290.859400038     42228.15 
67963.767994038      40394.2 
68643.405673978      38995.2 
69329.839730718     37661.55 
70023.138128025     35967.75 
70723.369509305      34367.3 
71430.603204399      33222.4 
72144.909236443      32129.8 
72866.358328807     30738.05 
73595.021912095     29417.95 
74330.972131216     27645.55 
75074.281852528      26974.8 
75825.024671053        26144 
76583.274917764     25332.35 
77349.107666942     24296.55 
78122.598743611      23312.9 
78903.824731047      22378.5 
79692.862978358     21490.15 
80489.791608141     20645.45 
81294.689524223     19834.35 
82107.636419465     19076.85 
82928.712783659      18347.9 
83757.999911496      17653.5 
84595.579910611      16832.7 
85441.535709717      16055.7 
86295.951066814     15448.75 
87158.910577482      14807.3 
88030.499683257     14369.15 
88910.80468009     13856.65 
89799.912726891 13248.433333333 
90697.91185416      12671.2 
91604.890972701      12232.8 
92520.939882428      11711.5 
93446.149281253     11185.55 
94380.610774065      10839.4 
95324.416881806      10390.8 
96277.661050624      9963.91 
97240.43766113      9559.84 
98212.842037741     9174.775 
99194.970458119     8881.185 
100186.9201627      8668.14 
199060.83304441      531.208 
399467.9878358      32.1776 
594753.39981818      6.23508 
793700.71765891      1.94546 
997811.18987739     0.788118 
1193529.3359837     0.376599 
1399507.0114645     0.201685 
