#  WAVELENGTH	        FLUX	
#  (ANGSTROM)	(ERG/CM2/S/A)	
############	############	
        90.9   1.42302E-5 
    92.72709   4.09169E-5 
95.53681355409  0.000109561 
97.457103506527    0.0001999 
99.415991287008  0.000392144 
101.41425271188  0.000886172 
103.45267919139    0.0015949 
105.53207804313   0.00281355 
107.6532728118   0.00532587 
109.81710359532    0.0116727 
113.14467165136    0.0313565 
117.73879903054    0.0833393 
120.10534889105     0.194911 
123.7446610678     0.433788 
126.23192875526     0.716687 
127.49424804281     0.945725 
130.05688242847      1.45695 
131.35745125276      2.13071 
132.67102576529      2.86164 
135.33771338317        4.747 
139.43858143639      8.56507 
142.24129692326      15.6701 
146.55135046134      29.0843 
150.99200293167      54.3626 
154.02694219059       101.77 
158.69411256591      170.323 
161.88386422848      270.231 
165.13772989948      461.315 
170.14156825316      779.931 
171.84298393569       1126.3 
175.2970279128      1692.61 
178.82049817385      2482.53 
180.60870315558      2866.31 
186.0813274699         4666 
189.82156215205      7634.78 
193.6369755513      10255.6 
197.52907875988      15602.3 
201.49941324296      20921.1 
203.51440737539      28021.9 
209.68109743327      44466.7 
216.03464436659      69443.9 
218.19499081026      92279.7 
222.58071012555       116036 
224.8065172268       152067 
229.32512822306     30592000 
233.93456330034    124091000 
238.63664802268    188928000 
245.86757709442    332014000 
250.80951539401    941031000 
255.85078665343   2101930000 
258.40929451997   2459730000 
263.60332133982  14806800000 
266.23935455322  18862000000 
271.59076557974  23149100000 
277.04973996789  14581100000 
282.61843974125  31454800000 
288.29907038004  46842600000 
294.09388169468  34548400000 
300.00516871675  23736700000 
306.03527260795  51805000000 
315.30844740325  16843400000 
324.86260866801  25153600000 
334.70627057326  17128400000 
344.8482052779  18107000000 
355.29745074603  48917700000 
362.43892950602  96151200000 
373.42119150899 123112000000 
384.7362270329 107802000000 
392.46942519626 170158000000 
404.36164124913 245067000000 
412.48931023824 230637000000 
420.78034537403 212604000000 
429.23803031605 195398000000 
437.8657147254 229586000000 
446.66681559138 235798000000 
455.64481858477 195131000000 
469.4513122327 208916000000 
478.88728360858 232530000000 
488.51291800911 180677000000 
498.3320276611 239841000000 
503.31534793771 189943000000 
508.34850141708 266915000000 
518.56630629557 245446000000 
528.98948905211 223101000000 
539.62217778206 187654000000 
545.01839955988 164142000000 
555.97326939103 213869000000 
567.14833210579 233842000000 
578.54801358112 225165000000 
584.33349371693 223949000000 
596.07859694064 190040000000 
608.05977673914 172925000000 
614.14037450653 212416000000 
626.48459603412 194326000000 
639.0769364144 211442000000 
645.46770577855 196060000000 
651.92238283633 173598000000 
658.44160666469 197069000000 
671.67628295866 200493000000 
678.39304578824 175975000000 
692.02874600859 190859000000 
698.94903346867 165935000000 
712.99790904139 185376000000 
720.12788813181 185000000000 
734.60245868325 182087000000 
741.94848327009 171564000000 
749.36796810279 166719000000 
764.43026426165 152018000000 
772.07456690427 159737000000 
779.79531257331 144627000000 
787.59326569905 152832000000 
803.4238903396 151919000000 
811.45812924299 149626000000 
819.57271053542 148118000000 
827.76843764078 131343000000 
844.40658323736 140477000000 
852.85064906973 133572000000 
861.37915556043 136504000000 
869.99294711603 134528000000 
878.69287658719 130355000000 
887.47980535306 127840000000 
896.3546034066 123071000000 
914.37133093507  90724100000 
923.51504424442 141120000000 
932.75019468686 183210000000 
942.07769663373 212672000000 
951.49847360007 237623000000 
961.01345833607 259509000000 
970.62359291943 190564000000 
980.32982884862 231569000000 
990.13312713711 204514000000 
1000.0344584085 207480000000 
1010.0348029926 210579000000 
1020.1351510225 180813000000 
1030.3365025327 212989000000 
1040.639867558 218016000000 
1051.0462662336 211567000000 
1061.556728896 197143000000 
1072.1722961849 199768000000 
1082.8940191468 181033000000 
1093.7229593382 189404000000 
1104.6601889316 181104000000 
1115.7067908209 170457000000 
1126.8638587291 173146000000 
1138.1324973164 170893000000 
1149.5138222896 160732000000 
1161.0089605125 150686000000 
1172.6190501176 134282000000 
1184.3452406188 140384000000 
1196.188693025 133828000000 
1208.1505799552 109373000000 
1220.2320857548 125778000000 
1232.4344066123 123369000000 
1244.7587506785 120373000000 
1257.2063381852 120454000000 
1269.7784015671 119650000000 
1282.4761855828 116765000000 
1295.3009474386 111422000000 
1308.253956913 110194000000 
1321.3364964821 107619000000 
1334.5498614469 104337000000 
1347.8953600614  98892500000 
1361.374313662  94707100000 
1374.9880567986  90667600000 
1388.7379373666  86915800000 
1402.6253167403  85419250000 
1416.6515699077  81781000000 
1430.8180856068 82500135294.118 
1445.1262664628 78564776923.077 
1459.5775291275  76872200000 
1474.1733044187  75781850000 
1488.9150374629  73511200000 
1503.8041878376 71834259090.909 
1518.8422297159  69669100000 
1534.0306520131  60133600000 
1549.3709585332  56259700000 
1564.8646681186  60489750000 
1580.5133147997  59309000000 
1596.3184479477  56408000000 
1612.2816324272  54636600000 
1628.4044487515  53762400000 
1644.688493239  52248700000 
1661.1353781714 51409277272.727 
1677.7467319531  51553200000 
1694.5241992726  49982900000 
1711.4694412654  46730150000 
1728.584135678  46731650000 
1745.8699770348  45230600000 
1763.3286768051  43942800000 
1780.9619635732  42617450000 
1798.7715832089  40901600000 
1816.759299041  39705400000 
1834.9268920314  38955600000 
1853.2761609517  37777150000 
1871.8089225613  36205350000 
1890.5270117869  35510550000 
1909.4322819047  33855550000 
1928.5266047238  33288350000 
1947.811870771 31837763636.364 
1967.2899894787 31064141176.471 
1986.9628893735 30122376190.476 
2006.8325182673  29172150000 
2026.9008434499  28065550000 
2047.1698518844  20092300000 
2067.6415504033  20450510000 
2088.3179659073  24277250000 
2109.2011455664  24675450000 
2130.293157022  23947850000 
2151.5960885923  23004500000 
2173.1120494782  22555100000 
2194.843169973 21879533333.333 
2216.7916016727  21387800000 
2238.9595176894  20278850000 
2261.3491128663  20130900000 
2283.962603995 18938133333.333 
2306.8022300349  18554250000 
2329.8702523353  18064550000 
2353.1689548586 17257833333.333 
2376.7006444072  16131150000 
2400.4676508513  16051600000 
2424.4723273598 15627866666.667 
2448.7170506334  15022800000 
2473.2042211397 14207666666.667 
2497.9362633511 13537126086.957 
2522.9156259846 13520962962.963 
2548.1447822445  13122550000 
2573.6262300669 12614266666.667 
2599.3624923676  12144600000 
2625.3561172913  11768000000 
2651.6096784642 11347633333.333 
2678.1257752488  10970900000 
2704.9070330013  10658600000 
2731.9561033313 10125233333.333 
2759.2756643647   9838860000 
2786.8684210083   9494755000 
2814.7371052184 9228053333.3333 
2842.8844762706 8893813333.3333 
2871.3133210333 8555466666.6667 
2900.0264542436   8295260000 
2929.026718786   8008885000 
2958.3169859739   7700410000 
2987.9001558336   7400320000 
3017.779157392   7103820000 
3047.9569489659   6876805000 
3078.4365184556   6663730000 
3109.2208836401   6436215000 
3140.3130924765   6156015000 
3171.7162234013   5950400000 
3203.4333856353   5696670000 
3235.4677194916   5570080000 
3267.8223966866   5356975000 
3300.5006206534   5137000000 
3333.50562686   4943400000 
3366.8406831286   4806680000 
3400.5090899598   4609160000 
3434.5141808594   4447960000 
3468.859322668   4331070000 
3503.5479158947   4157075000 
3538.5833950537   3986250000 
3573.9692290042   3865490000 
3609.7089212942   3713386000 
3645.8060105072 3186426666.6667 
3682.2640706123   3087565000 
3719.0867113184   3061870000 
3756.2775784316   3083665000 
3793.8403542159   3042690000 
3831.778757758   3050645000 
3870.0965453356   2750020000 
3908.797510789   2915540000 
3947.8854858969   2684070000 
3987.3643407558   2718075000 
4027.2379841634   2604960000 
4067.510364005   2490760000 
4108.1854676451   2341885000 
4149.2673223215 2335966666.6667 
4190.7599955447   2221000000 
4232.6675955002   2164640000 
4274.9942714552   2085655000 
4317.7442141697   1903955000 
4360.9216563114   1937200000 
4404.5308728746   1876980000 
4448.5761816033   1797260000 
4493.0619434193   1720800000 
4537.9925628535   1650135000 
4583.3724884821   1616345000 
4629.2062133669   1538130000 
4675.4982755006   1462205000 
4722.2532582556   1448145000 
4769.4757908381 1391046666.6667 
4817.1705487465   1315965000 
4865.342254234   1250160000 
4913.9956767763   1234845000 
4963.1356335441 1190273333.3333 
5012.7669898795   1146080000 
5062.8946597783   1104940000 
5113.5236063761   1064370000 
5164.6588424398 1026106666.6667 
5216.3054308642    988831000 
5268.4684851729 953788666.66667 
5321.1531700246    914093000 
5374.3647017249    871487500 
5428.1083487421 851562333.33333 
5482.3894322295 816666666.66667 
5537.2133265518    782927000 
5592.5854598173    757481000 
5648.5113144155 728417666.66667 
5704.9964275597    651859000 
5762.0463918353    626803000 
5819.6668557536 606821666.66667 
5877.8635243112 594210666.66667 
5936.6421595543    584748000 
5996.0085811498 574403333.33333 
6055.9686669613 556616666.66667 
6116.5283536309 536607666.66667 
6177.6936371672 517322666.66667 
6239.4705735389 499103666.66667 
6301.8652792743 480303666.66667 
6364.883932067 462891666.66667 
6428.5327713877    445125000 
6492.8180991016 422480333.33333 
6557.7462800926 400900666.66667 
6623.3237428935 397427666.66667 
6689.5569803225    380666750 
6756.4525501257 367520666.66667 
6824.0170756269    351787750 
6892.2572463832    339547000 
6961.179818847    326677250 
7030.7916170355 313956666.66667 
7101.0995332059    301763500 
7172.1105285379    290737000 
7243.8316338233    280728250 
7316.2699501615 270623666.66667 
7389.4326496631    260826500 
7463.3269761598    250180750 
7537.9602459214    238805750 
7613.3398483806    231795000 
7689.4732468644    223580500 
7766.367979333    215035750 
7844.0316591264    206595500 
7922.4719757176    198740500 
8001.6966954748    191191250 
8081.7136624296    184009750 
8162.5307990539    172474000 
8244.1561070444    162688750 
8326.5976681148    156928500 
8409.863644796    151034600 
8493.9622812439    145734250 
8578.9019040564    141523500 
8664.6909230969    136897600 
8751.3378323279    133587750 
8838.8512106512    128489250 
8927.2397227577    124462400 
9016.5121199853    120023750 
9106.6772411851    116550800 
9197.744013597    109331750 
9289.721453733    107407000 
9382.6186682703    103779400 
9476.444854953     97179140 
9571.2093035025     95880425 
9666.9213965375     92474140 
9763.5906105029     88865020 
9861.226516608     85529340 
9959.838781774     81641280 
10059.437169592     77335850 
10160.031541288     76397450 
10261.631856701     73484800 
10364.248175268     70591950 
10467.89065702     68205300 
10572.56956359     65120600 
10678.295259226     62199250 
10785.078211819     59832100 
10892.928993937     56179300 
11001.858283876     55812950 
11111.876866715     53913200 
11222.995635382 51619966.666667 
11335.225591736     49433850 
11448.577847653     47770100 
11563.06362613 45422166.666667 
11678.694262391     43899250 
11795.481205015     42458400 
11913.436017065 40718333.333333 
12032.570377236     39110000 
12152.896081008     37871600 
12274.425041818     36385500 
12397.169292236     34967050 
12521.140985159 33618133.333333 
12646.35239501     32333350 
12772.81591896     30472100 
12900.54407815 29714433.333333 
13029.549518932     28618300 
13159.845014121     27568300 
13291.443464262     26563950 
13424.357898905 25605866.666667 
13558.601477894     24513400 
13694.187492673 23476733.333333 
13831.129367599     22653850 
13969.440661275 21868933.333333 
14109.135067888 20969766.666667 
14250.226418567     20115500 
14392.728682753 19306333.333333 
14536.65596958     18538870 
14682.022529276 17731733.333333 
14828.842754569 17114933.333333 
14977.131182115     16452000 
15126.902493936     15822400 
15278.171518875 15220266.666667 
15430.953234064 14645833.333333 
15585.262766404 14096233.333333 
15741.115394068     13571600 
15898.526548009 13029642.857143 
16057.511813489     12499800 
16218.086931624     12088850 
16380.26780094     11591900 
16544.07047895     11266400 
16709.511183739     10660500 
16876.606295577     10372000 
17045.372358532     10010275 
17215.826082118      9480640 
17387.984342939      9128575 
17561.864186368      8836020 
17737.482828232      8545150 
17914.857656514      8173350 
18094.006233079      7723885 
18274.94629541      7492490 
18457.695758364      7255370 
18642.272715948      6867825 
18828.695443107      6735555 
19016.982397539      6459880 
19207.152221514      6195495 
19399.223743729      5863805 
19593.215981166      5715570 
19789.148140978      5490760 
19987.039622388      5277065 
20186.910018612      5073535 
20388.779118798      4878915 
20592.666909986      4694015 
20798.593579086      4518935 
21006.579514877      4349825 
21216.645310025      4190920 
21428.811763126      4035595 
21643.099880757 3811723.3333333 
21859.530879564      3685215 
22078.12618836      3554925 
22298.907450244      3430300 
22521.896524746      3311105 
22747.115489993 3171883.3333333 
22974.586644893      3038245 
23204.332511342      2935855 
23436.375836456      2813950 
23670.73959482      2697895 
23907.446990769      2609460 
24146.521460676 2504053.3333333 
24387.986675283      2403740 
24631.866542036 2308336.6666667 
24878.185207456      2217890 
25126.967059531 2131776.6666667 
25378.236730126      2049550 
25632.019097427      1970780 
25888.339288402      1895715 
26147.222681286 1798343.3333333 
26408.694908098      1744450 
26672.781857179      1675865 
26939.509675751 1619963.3333333 
27208.904772509 1549916.6666667 
27480.993820234 1478343.3333333 
27755.803758436      1431775 
28033.361796021      1381780 
28313.695413981      1324480 
28596.832368121 1262176.6666667 
28882.800691802      1218630 
29171.62869872 1169673.3333333 
29463.344985707 1123136.6666667 
29757.978435564 1078866.6666667 
30055.55821992 1031353.3333333 
30356.113802119 993257.33333333 
30659.67494014 958535.33333333 
30966.271689541 922169.66666667 
31275.934406437 887519.66666667 
31588.693750501 854481.33333333 
31904.580688006     823980.2 
32223.626494886       788012 
32545.862759835       759422 
32871.321387434     724992.5 
33200.034601308       698215 
33532.034947321       673622 
33867.355296794     650224.5 
34206.028849762     620496.5 
34548.08913826       599249 
34893.570029642       579015 
35242.505729939     553268.5 
35594.930787238       528951 
35950.880095111     505940.5 
36310.388896062       489459 
36673.492785022     473718.5 
37040.227712872       451360 
37410.629990001     431492.5 
37784.736289901     416602.5 
38162.5836528       399484 
38544.209489328       383244 
38929.651584221     367788.5 
39318.948100064     353164.5 
39712.137581064     339074.5 
40109.258956875       322181 
40510.351546444     313275.5 
40915.455061908     301307.5 
41324.609612527     289306.5 
41737.855708653     278938.5 
42155.234265739       268556 
42576.786608396       258603 
43002.55447448     249162.5 
43432.580019225     239402.5 
43866.905819417 229231.66666667 
44305.574877612       219276 
44748.630626388     211590.5 
45196.116932652     204213.5 
45648.078101978       195445 
46104.558882998     184535.5 
46565.604471828     179333.5 
47031.260516546 173239.33333333 
47501.573121712     166066.5 
47976.588852929       160604 
48456.354741458 154095.33333333 
48940.918288873     147891.5 
49430.327471761 142017.33333333 
49924.630746479     136411.5 
50423.877053944 131095.33333333 
50928.115824483       124886 
51437.396982728       121140 
51951.770952555     116597.5 
52471.288662081 112221.66666667 
52996.001548702 107230.66666667 
53525.961564189     103275.5 
54061.221179831 99512.333333333 
54601.833391629 95212.366666667 
55147.851725545     91799.15 
55699.330242801      88548.5 
56256.323545229 84827.966666667 
56818.886780681      81299.7 
57387.075648488 77954.033333333 
57960.946404973      74783.2 
58540.555869022 71158.833333333 
59125.961427713      68768.1 
59717.22104199      66184.5 
60314.39325241      63592.4 
60917.537184934 61125.366666667 
61526.712556783      58776.7 
62141.979682351      56527.8 
62763.399479174      54299.6 
63391.033473966 52373.833333333 
64024.943808706 50032.785714286 
64665.193246793      48281.3 
65311.845179261      46533.2 
65964.963631053      44317.1 
66624.613267364      42736.9 
67290.859400038     41109.15 
67963.767994038      39326.5 
68643.405673978      37965.1 
69329.839730718      36667.3 
70023.138128025      35018.3 
70723.369509305      33460.6 
71430.603204399      32346.1 
72144.909236443      31282.9 
72866.358328807      29928.4 
73595.021912095      28634.7 
74330.972131216      26804.7 
75074.281852528        26247 
75825.024671053      25456.9 
76583.274917764      24666.5 
77349.107666942      23658.1 
78122.598743611      22700.6 
78903.824731047      21791.1 
79692.862978358     20926.25 
80489.791608141      20103.9 
81294.689524223      19320.9 
82107.636419465      18576.6 
82928.712783659     17867.35 
83757.999911496      17191.4 
84595.579910611 16392.066666667 
85441.535709717      15635.7 
86295.951066814        15050 
87158.910577482     14404.25 
88030.499683257      13993.6 
88910.80468009     13494.65 
89799.912726891      12902.7 
90697.91185416     12340.55 
91604.890972701     11913.65 
92520.939882428 11406.433333333 
93446.149281253     10898.65 
94380.610774065      10557.1 
95324.416881806 10120.426666667 
96277.661050624     9704.765 
97240.43766113 9311.4233333333 
98212.842037741     8936.435 
99194.970458119      8650.48 
100186.9201627         8443 
199060.83304441      517.769 
399467.9878358      31.3487 
594753.39981818      6.06807 
793700.71765891      1.89124 
997811.18987739     0.765442 
1193529.3359837      0.36548 
1399507.0114645     0.195612 
