#  WAVELENGTH	        FLUX	
#  (ANGSTROM)	(ERG/CM2/S/A)	
############	############	
412.48931023824  1.04601E-24 
420.78034537403  4.43888E-24 
429.23803031605  1.77978E-23 
437.8657147254  1.10155E-22 
446.66681559138  5.32162E-22 
455.64481858477  2.06454E-21 
469.4513122327  8.73149E-21 
478.88728360858  3.46383E-20 
488.51291800911  1.29491E-19 
498.3320276611  4.57246E-19 
503.31534793771  1.26228E-18 
508.34850141708   2.8988E-18 
518.56630629557  7.27896E-18 
528.98948905211  2.22109E-17 
539.62217778206  6.37392E-17 
545.01839955988  1.78178E-16 
555.97326939103  4.75705E-16 
567.14833210579  1.22319E-15 
578.54801358112  3.00185E-15 
584.33349371693  7.28622E-15 
596.07859694064  1.69414E-14 
608.05977673914  3.82673E-14 
614.14037450653  8.39194E-14 
626.48459603412   1.7913E-13 
639.0769364144  3.72636E-13 
645.46770577855  7.56928E-13 
651.92238283633  1.31153E-12 
658.44160666469  2.09405E-12 
671.67628295866  4.01905E-12 
678.39304578824  7.55339E-12 
692.02874600859  1.39165E-11 
698.94903346867  2.50555E-11 
712.99790904139  4.71897E-11 
720.12788813181  8.21326E-11 
734.60245868325  1.33328E-10 
741.94848327009  2.24867E-10 
749.36796810279  3.73673E-10 
764.43026426165  6.11936E-10 
772.07456690427  9.88014E-10 
779.79531257331   1.57478E-9 
787.59326569905   2.45348E-9 
803.4238903396   3.82757E-9 
811.45812924299   5.88837E-9 
819.57271053542    8.9286E-9 
827.76843764078   1.33866E-8 
844.40658323736   1.98578E-8 
852.85064906973   2.91495E-8 
861.37915556043   4.23619E-8 
869.99294711603   6.07835E-8 
878.69287658719   8.69116E-8 
887.47980535306   1.22826E-7 
896.3546034066   1.71179E-7 
914.37133093507  0.000150598 
923.51504424442  0.000455972 
932.75019468686  0.000637089 
942.07769663373  0.000893286 
951.49847360007   0.00130183 
961.01345833607   0.00180322 
970.62359291943   0.00241654 
980.32982884862    0.0032696 
990.13312713711   0.00429615 
1000.0344584085   0.00600925 
1010.0348029926    0.0079853 
1020.1351510225    0.0102295 
1030.3365025327    0.0136938 
1040.639867558    0.0180337 
1051.0462662336    0.0234485 
1061.556728896    0.0297565 
1072.1722961849    0.0385623 
1082.8940191468    0.0494553 
1093.7229593382    0.0619032 
1104.6601889316      0.45389 
1115.7067908209      1.08561 
1126.8638587291      1.54503 
1138.1324973164      1.99272 
1149.5138222896      2.22151 
1161.0089605125       3.0536 
1172.6190501176      3.50499 
1184.3452406188     2.724655 
1196.188693025      1.40148 
1208.1505799552     0.512363 
1220.2320857548      1.76756 
1232.4344066123      4.72215 
1244.7587506785       19.146 
1257.2063381852      28.5192 
1269.7784015671      57.1437 
1282.4761855828     115.8964 
1295.3009474386      96.2783 
1308.253956913       203.97 
1321.3364964821       272.78 
1334.5498614469     373.4815 
1347.8953600614      476.775 
1361.374313662      545.131 
1374.9880567986     675.8805 
1388.7379373666      891.385 
1402.6253167403     1051.995 
1416.6515699077      1279.95 
1430.8180856068 1421.1464705882 
1445.1262664628 1924.1223076923 
1459.5775291275      2081.45 
1474.1733044187     2568.045 
1488.9150374629      3269.84 
1503.8041878376 3784.3522727273 
1518.8422297159      4347.02 
1534.0306520131     9923.365 
1549.3709585332      11992.8 
1564.8646681186     13785.35 
1580.5133147997      26701.1 
1596.3184479477      27540.8 
1612.2816324272      23725.3 
1628.4044487515      25799.6 
1644.688493239     25852.15 
1661.1353781714 28085.840909091 
1677.7467319531       118891 
1694.5241992726     169248.5 
1711.4694412654       359458 
1728.584135678       523325 
1745.8699770348       703121 
1763.3286768051     684895.5 
1780.9619635732     868395.5 
1798.7715832089       908204 
1816.759299041       798959 
1834.9268920314     739541.5 
1853.2761609517      1074072 
1871.8089225613      1108590 
1890.5270117869      1282980 
1909.4322819047      1166225 
1928.5266047238    1077981.5 
1947.811870771 1794394.5454545 
1967.2899894787 1842549.4117647 
1986.9628893735 1746494.2857143 
2006.8325182673      1364565 
2026.9008434499      1918800 
2047.1698518844      1535625 
2067.6415504033    2427078.5 
2088.3179659073      2277655 
2109.2011455664      2275755 
2130.293157022      1920210 
2151.5960885923      2114235 
2173.1120494782      2098030 
2194.843169973 2230756.6666667 
2216.7916016727      2095880 
2238.9595176894      1902820 
2261.3491128663      1791965 
2283.962603995      2210500 
2306.8022300349      1900975 
2329.8702523353       727079 
2353.1689548586 908157.66666667 
2376.7006444072       522012 
2400.4676508513     799685.5 
2424.4723273598      2282950 
2448.7170506334      2364790 
2473.2042211397 2119683.3333333 
2497.9362633511 2550482.173913 
2522.9156259846 1806884.0740741 
2548.1447822445      2068965 
2573.6262300669 1712046.6666667 
2599.3624923676      1163210 
2625.3561172913      3243845 
2651.6096784642 3776996.6666667 
2678.1257752488      3549665 
2704.9070330013 3192803.3333333 
2731.9561033313      2063490 
2759.2756643647 2366766.6666667 
2786.8684210083       740777 
2814.7371052184 3396816.6666667 
2842.8844762706      3826330 
2871.3133210333      4290780 
2900.0264542436      5342570 
2929.026718786      4908160 
2958.3169859739      5505600 
2987.9001558336      5808420 
3017.779157392      6002050 
3047.9569489659      6021635 
3078.4365184556      6498030 
3109.2208836401      6179940 
3140.3130924765      6563505 
3171.7162234013      5937450 
3203.4333856353      6227945 
3235.4677194916      6616900 
3267.8223966866      6982060 
3300.5006206534      7205990 
3333.50562686      6981060 
3366.8406831286      6969620 
3400.5090899598      7558785 
3434.5141808594      7642550 
3468.859322668      7440445 
3503.5479158947      7862550 
3538.5833950537      8073995 
3573.9692290042      7904900 
3609.7089212942      8086152 
3645.8060105072      8511750 
3682.2640706123     11239370 
3719.0867113184     23956900 
3756.2775784316     31817850 
3793.8403542159     34513300 
3831.778757758     39105050 
3870.0965453356     30517700 
3908.797510789     26738050 
3947.8854858969     24607300 
3987.3643407558     38016400 
4027.2379841634     38050100 
4067.510364005     37427850 
4108.1854676451     34286800 
4149.2673223215 37255933.333333 
4190.7599955447     35902100 
4232.6675955002     35452000 
4274.9942714552     34191000 
4317.7442141697     30461400 
4360.9216563114     34420700 
4404.5308728746     32879900 
4448.5761816033 33157333.333333 
4493.0619434193     33097650 
4537.9925628535     32308450 
4583.3724884821     32031300 
4629.2062133669 31871333.333333 
4675.4982755006     30444900 
4722.2532582556     31134500 
4769.4757908381 30292633.333333 
4817.1705487465     28254600 
4865.342254234     26330900 
4913.9956767763     27883950 
4963.1356335441     26965900 
5012.7669898795     26441000 
5062.8946597783     26359800 
5113.5236063761     24998300 
5164.6588424398 24154833.333333 
5216.3054308642     24099350 
5268.4684851729 23238466.666667 
5321.1531700246 23089866.666667 
5374.3647017249     22548350 
5428.1083487421     22373900 
5482.3894322295     21901700 
5537.2133265518 21527466.666667 
5592.5854598173     21217100 
5648.5113144155 20617866.666667 
5704.9964275597     20396400 
5762.0463918353     19895800 
5819.6668557536 19437033.333333 
5877.8635243112 18828366.666667 
5936.6421595543     18460800 
5996.0085811498 17948433.333333 
6055.9686669613 17541666.666667 
6116.5283536309 16798166.666667 
6177.6936371672 16697566.666667 
6239.4705735389     16159200 
6301.8652792743 15808133.333333 
6364.883932067 15468833.333333 
6428.5327713877     14985775 
6492.8180991016 14342766.666667 
6557.7462800926 13041133.333333 
6623.3237428935 14115533.333333 
6689.5569803225     13750325 
6756.4525501257 13432566.666667 
6824.0170756269     13065525 
6892.2572463832 12751233.333333 
6961.179818847     12381625 
7030.7916170355 12114766.666667 
7101.0995332059     11692550 
7172.1105285379 11412133.333333 
7243.8316338233     11140825 
7316.2699501615 10900233.333333 
7389.4326496631     10563475 
7463.3269761598     10273700 
7537.9602459214   10091462.5 
7613.3398483806 9812813.3333333 
7689.4732468644      9582990 
7766.367979333    9298152.5 
7844.0316591264      9028535 
7922.4719757176      8803360 
8001.6966954748    8608652.5 
8081.7136624296      8408640 
8162.5307990539      8115890 
8244.1561070444      7954130 
8326.5976681148    7684077.5 
8409.863644796      7736146 
8493.9622812439    7510597.5 
8578.9019040564      8223755 
8664.6909230969      7751566 
8751.3378323279      8252260 
8838.8512106512      7683560 
8927.2397227577      7650110 
9016.5121199853      7434365 
9106.6772411851      7419986 
9197.744013597    6738887.5 
9289.721453733      7045152 
9382.6186682703      6736530 
9476.444854953      6352376 
9571.2093035025      6362530 
9666.9213965375      6194478 
9763.5906105029      6044050 
9861.226516608      5830988 
9959.838781774 5637872.6666667 
10059.437169592      5345475 
10160.031541288      5357575 
10261.631856701      5205030 
10364.248175268      5057050 
10467.89065702      4852455 
10572.56956359 4686276.6666667 
10678.295259226      4523000 
10785.078211819      4401445 
10892.928993937      4110335 
11001.858283876      4199415 
11111.876866715      4069890 
11222.995635382 3892286.6666667 
11335.225591736      3769065 
11448.577847653      3706995 
11563.06362613 3535693.3333333 
11678.694262391      3427740 
11795.481205015      3318390 
11913.436017065 3246053.3333333 
12032.570377236      3135800 
12152.896081008      3065255 
12274.425041818      2963460 
12397.169292236      2876920 
12521.140985159 2770983.3333333 
12646.35239501      2702140 
12772.81591896      2550530 
12900.54407815      2519180 
13029.549518932      2444270 
13159.845014121 2365873.3333333 
13291.443464262      2299350 
13424.357898905 2227066.6666667 
13558.601477894 2144986.6666667 
13694.187492673 2060033.3333333 
13831.129367599      2010445 
13969.440661275 1954016.6666667 
14109.135067888 1885016.6666667 
14250.226418567 1821316.6666667 
14392.728682753 1740623.3333333 
14536.65596958      1697702 
14682.022529276 1636353.3333333 
14828.842754569 1583736.6666667 
14977.131182115      1523260 
15126.902493936      1487690 
15278.171518875      1438820 
15430.953234064 1413586.6666667 
15585.262766404 1378943.3333333 
15741.115394068 1337213.3333333 
15898.526548009 1329641.4285714 
16057.511813489      1245960 
16218.086931624      1249915 
16380.26780094      1166290 
16544.07047895      1175330 
16709.511183739      1101935 
16876.606295577      1092440 
17045.372358532      1055895 
17215.826082118     988702.5 
17387.984342939     966520.5 
17561.864186368       938407 
17737.482828232       912844 
17914.857656514     879099.5 
18094.006233079     827448.5 
18274.94629541       813325 
18457.695758364       787648 
18642.272715948     749629.5 
18828.695443107       734496 
19016.982397539     712509.5 
19207.152221514       685465 
19399.223743729       647570 
19593.215981166     636048.5 
19789.148140978       614122 
19987.039622388       592883 
20186.910018612     571197.5 
20388.779118798       552099 
20592.666909986     532052.5 
20798.593579086       514147 
21006.579514877     495736.5 
21216.645310025       478643 
21428.811763126     464141.5 
21643.099880757 438892.33333333 
21859.530879564       426551 
22078.12618836       412354 
22298.907450244       399815 
22521.896524746     385945.5 
22747.115489993       371497 
22974.586644893     357432.5 
23204.332511342     346450.5 
23436.375836456 333044.33333333 
23670.73959482       320283 
23907.446990769     310066.5 
24146.521460676 298703.66666667 
24387.986675283     287928.5 
24631.866542036 278194.33333333 
24878.185207456       267024 
25126.967059531 258752.33333333 
25378.236730126       252041 
25632.019097427 240519.33333333 
25888.339288402     235265.5 
26147.222681286 221483.33333333 
26408.694908098 217815.66666667 
26672.781857179       206756 
26939.509675751 203666.33333333 
27208.904772509 195565.66666667 
27480.993820234       185160 
27755.803758436     181583.5 
28033.361796021       175622 
28313.695413981 168747.33333333 
28596.832368121       160222 
28882.800691802 155960.33333333 
29171.62869872 150185.33333333 
29463.344985707 144621.66666667 
29757.978435564       139219 
30055.55821992 132862.66666667 
30356.113802119 128825.33333333 
30659.67494014 124429.33333333 
30966.271689541 119864.33333333 
31275.934406437 115717.33333333 
31588.693750501 111773.66666667 
31904.580688006     108029.6 
32223.626494886     103618.5 
32545.862759835       100041 
32871.321387434      95271.5 
33200.034601308     92007.65 
33532.034947321      88831.2 
33867.355296794      85953.6 
34206.028849762     82420.45 
34548.08913826      79802.1 
34893.570029642     77273.75 
35242.505729939      73980.1 
35594.930787238      70963.6 
35950.880095111      68048.1 
36310.388896062      65635.4 
36673.492785022     63812.45 
37040.227712872     61360.45 
37410.629990001      58392.4 
37784.736289901     56618.05 
38162.5836528     54614.55 
38544.209489328     52588.95 
38929.651584221      50257.5 
39318.948100064      48789.4 
39712.137581064      46752.2 
40109.258956875      44469.4 
40510.351546444     43507.25 
40915.455061908     41966.15 
41324.609612527     40059.95 
41737.855708653     38930.45 
42155.234265739     37602.95 
42576.786608396     36280.15 
43002.55447448     35002.85 
43432.580019225     33504.65 
43866.905819417      32320.2 
44305.574877612      30993.9 
44748.630626388     29925.45 
45196.116932652      28930.7 
45648.078101978 27734.766666667 
46104.558882998     26356.05 
46565.604471828     25495.95 
47031.260516546      24712.8 
47501.573121712      23729.8 
47976.588852929     22991.25 
48456.354741458 22089.033333333 
48940.918288873     21229.75 
49430.327471761      20430.1 
49924.630746479     19632.95 
50423.877053944 18911.266666667 
50928.115824483     18079.95 
51437.396982728 17538.866666667 
51951.770952555     16965.35 
52471.288662081 16289.033333333 
52996.001548702 15655.166666667 
53525.961564189     14993.65 
54061.221179831 14566.733333333 
54601.833391629      13955.5 
55147.851725545     13379.95 
55699.330242801 13010.066666667 
56256.323545229 12490.133333333 
56818.886780681 11923.966666667 
57387.075648488      11513.5 
57960.946404973 11058.933333333 
58540.555869022 10560.966666667 
59125.961427713      10148.6 
59717.22104199 9828.8266666667 
60314.39325241 9457.3533333333 
60917.537184934      9101.38 
61526.712556783 8769.5166666667 
62141.979682351 8442.0566666667 
62763.399479174 8084.4533333333 
63391.033473966      7845.35 
64024.943808706 7509.7185714286 
64665.193246793      7249.64 
65311.845179261      7000.39 
65964.963631053     6675.615 
66624.613267364      6450.15 
67290.859400038      6193.61 
67963.767994038     5943.835 
68643.405673978      5748.91 
69329.839730718     5549.605 
70023.138128025     5317.375 
70723.369509305      5078.08 
71430.603204399         4924 
72144.909236443      4751.77 
72866.358328807     4566.975 
73595.021912095      4375.38 
74330.972131216     4121.965 
75074.281852528      4023.89 
75825.024671053      3903.66 
76583.274917764      3786.17 
77349.107666942     3621.405 
78122.598743611     3493.635 
78903.824731047       3357.6 
79692.862978358     3227.715 
80489.791608141      3104.53 
81294.689524223      2972.61 
82107.636419465     2874.905 
82928.712783659      2767.31 
83757.999911496     2664.335 
84595.579910611      2545.25 
85441.535709717      2430.06 
86295.951066814     2332.775 
87158.910577482     2249.825 
88030.499683257     2180.615 
88910.80468009     2106.795 
89799.912726891 2015.1533333333 
90697.91185416      1930.92 
91604.890972701      1866.13 
92520.939882428      1786.58 
93446.149281253       1705.6 
94380.610774065     1657.525 
95324.416881806 1589.9166666667 
96277.661050624     1528.135 
97240.43766113      1467.24 
98212.842037741      1406.17 
99194.970458119      1365.76 
100186.9201627      1333.67 
199060.83304441      86.2467 
399467.9878358      5.39267 
594753.39981818      1.05788 
793700.71765891      0.33244 
997811.18987739     0.135322 
1193529.3359837    0.0648997 
1399507.0114645     0.034859 
