#  WAVELENGTH	        FLUX	
#  (ANGSTROM)	(ERG/CM2/S/A)	
############	############	
        90.9   2.44399E-6 
    92.72709   7.36848E-6 
95.53681355409   2.05987E-5 
97.457103506527    3.8637E-5 
99.415991287008   7.81058E-5 
101.41425271188  0.000183042 
103.45267919139  0.000338139 
105.53207804313  0.000611649 
107.6532728118    0.0011908 
109.81710359532   0.00270081 
113.14467165136   0.00757315 
117.73879903054    0.0209771 
120.10534889105    0.0508805 
123.7446610678     0.117046 
126.23192875526     0.197532 
127.49424804281     0.263972 
130.05688242847      0.41369 
131.35745125276     0.614233 
132.67102576529     0.835231 
135.33771338317      1.41485 
139.43858143639      2.61806 
142.24129692326      4.90715 
146.55135046134      9.31434 
150.99200293167       17.922 
154.02694219059      34.4228 
158.69411256591      58.8981 
161.88386422848      97.0551 
165.13772989948      169.498 
170.14156825316      291.828 
171.84298393569      427.054 
175.2970279128      654.048 
178.82049817385      975.354 
180.60870315558      1128.22 
186.0813274699      1881.08 
189.82156215205       3135.2 
193.6369755513      4278.22 
197.52907875988       6615.7 
201.49941324296      8905.75 
203.51440737539        12136 
209.68109743327        19577 
216.03464436659      31029.7 
218.19499081026      41712.2 
222.58071012555      52713.1 
224.8065172268      69682.3 
229.32512822306     20672500 
233.93456330034     79452200 
238.63664802268    114020000 
245.86757709442    217009000 
250.80951539401    702063000 
255.85078665343   1669190000 
258.40929451997   1926120000 
263.60332133982  11821500000 
266.23935455322  14551400000 
271.59076557974  17957600000 
277.04973996789  10911500000 
282.61843974125  24089300000 
288.29907038004  38357500000 
294.09388169468  28592300000 
300.00516871675  19255000000 
306.03527260795  36922400000 
315.30844740325  11366300000 
324.86260866801  16891700000 
334.70627057326  11658000000 
344.8482052779  12502300000 
355.29745074603  34504600000 
362.43892950602  73067500000 
373.42119150899  94741900000 
384.7362270329  79496600000 
392.46942519626 134899000000 
404.36164124913 206279000000 
412.48931023824 197784000000 
420.78034537403 181207000000 
429.23803031605 168736000000 
437.8657147254 206360000000 
446.66681559138 210683000000 
455.64481858477 174115000000 
469.4513122327 189968000000 
478.88728360858 215655000000 
488.51291800911 163449000000 
498.3320276611 234055000000 
503.31534793771 178775000000 
508.34850141708 243662000000 
518.56630629557 224923000000 
528.98948905211 204513000000 
539.62217778206 168379000000 
545.01839955988 140580000000 
555.97326939103 187656000000 
567.14833210579 217411000000 
578.54801358112 211457000000 
584.33349371693 210324000000 
596.07859694064 175431000000 
608.05977673914 152039000000 
614.14037450653 196392000000 
626.48459603412 175902000000 
639.0769364144 199227000000 
645.46770577855 183951000000 
651.92238283633 161285000000 
658.44160666469 187085000000 
671.67628295866 190066000000 
678.39304578824 165738000000 
692.02874600859 181500000000 
698.94903346867 155513000000 
712.99790904139 175830000000 
720.12788813181 176573000000 
734.60245868325 173433000000 
741.94848327009 163052000000 
749.36796810279 158260000000 
764.43026426165 140302000000 
772.07456690427 152066000000 
779.79531257331 132535000000 
787.59326569905 144743000000 
803.4238903396 145332000000 
811.45812924299 142996000000 
819.57271053542 141593000000 
827.76843764078 124638000000 
844.40658323736 134151000000 
852.85064906973 126394000000 
861.37915556043 130557000000 
869.99294711603 129022000000 
878.69287658719 124723000000 
887.47980535306 122149000000 
896.3546034066 117542000000 
914.37133093507  88906200000 
923.51504424442 139557000000 
932.75019468686 177914000000 
942.07769663373 194768000000 
951.49847360007 215466000000 
961.01345833607 224098000000 
970.62359291943 175607000000 
980.32982884862 200475000000 
990.13312713711 178661000000 
1000.0344584085 179267000000 
1010.0348029926 182126000000 
1020.1351510225 167061000000 
1030.3365025327 186001000000 
1040.639867558 188602000000 
1051.0462662336 183528000000 
1061.556728896 173521000000 
1072.1722961849 174796000000 
1082.8940191468 162309000000 
1093.7229593382 165865000000 
1104.6601889316 159753500000 
1115.7067908209 151389000000 
1126.8638587291 153292000000 
1138.1324973164 151649000000 
1149.5138222896 143499000000 
1161.0089605125 135609000000 
1172.6190501176 121588000000 
1184.3452406188 126192500000 
1196.188693025 120832000000 
1208.1505799552 103728000000 
1220.2320857548 114067000000 
1232.4344066123 110594000000 
1244.7587506785 107824500000 
1257.2063381852 108198000000 
1269.7784015671 107409000000 
1282.4761855828 105026500000 
1295.3009474386 100273000000 
1308.253956913  98948000000 
1321.3364964821  96739100000 
1334.5498614469  93910000000 
1347.8953600614  88949000000 
1361.374313662  85086800000 
1374.9880567986  81612950000 
1388.7379373666  78845100000 
1402.6253167403  77490950000 
1416.6515699077  74805100000 
1430.8180856068 75192676470.588 
1445.1262664628 71648392307.692 
1459.5775291275  70188000000 
1474.1733044187  69403050000 
1488.9150374629  67320200000 
1503.8041878376 65746645454.545 
1518.8422297159  63999400000 
1534.0306520131  55364050000 
1549.3709585332  51772700000 
1564.8646681186  56123100000 
1580.5133147997  55020300000 
1596.3184479477  52415700000 
1612.2816324272  50915850000 
1628.4044487515  50411000000 
1644.688493239  48787600000 
1661.1353781714 47957086363.636 
1677.7467319531  48109800000 
1694.5241992726  46726400000 
1711.4694412654  43673750000 
1728.584135678  43836100000 
1745.8699770348  42457500000 
1763.3286768051  41309150000 
1780.9619635732  40043450000 
1798.7715832089  38459200000 
1816.759299041  37402400000 
1834.9268920314  36709250000 
1853.2761609517  35611000000 
1871.8089225613  34197600000 
1890.5270117869  33555800000 
1909.4322819047  32058750000 
1928.5266047238  31481500000 
1947.811870771 30159218181.818 
1967.2899894787 29408364705.882 
1986.9628893735 28540038095.238 
2006.8325182673  27659750000 
2026.9008434499  26613000000 
2047.1698518844  19394450000 
2067.6415504033  20303500000 
2088.3179659073  23738250000 
2109.2011455664  23463250000 
2130.293157022  22797400000 
2151.5960885923  21957700000 
2173.1120494782  21523950000 
2194.843169973 20860533333.333 
2216.7916016727  20313150000 
2238.9595176894  19405750000 
2261.3491128663  19137750000 
2283.962603995  18103400000 
2306.8022300349  17676200000 
2329.8702523353  17201350000 
2353.1689548586 16457333333.333 
2376.7006444072  15487850000 
2400.4676508513  15309900000 
2424.4723273598 14910233333.333 
2448.7170506334  14333050000 
2473.2042211397 13564533333.333 
2497.9362633511 13047643478.261 
2522.9156259846 12939181481.481 
2548.1447822445  12571250000 
2573.6262300669  12081500000 
2599.3624923676 11642666666.667 
2625.3561172913  11287200000 
2651.6096784642  10893300000 
2678.1257752488  10536700000 
2704.9070330013 10243733333.333 
2731.9561033313 9759483333.3333 
2759.2756643647   9457590000 
2786.8684210083   9139655000 
2814.7371052184 8878093333.3333 
2842.8844762706 8556396666.6667 
2871.3133210333 8230423333.3333 
2900.0264542436   7994090000 
2929.026718786   7720750000 
2958.3169859739   7426640000 
2987.9001558336   7141805000 
3017.779157392   6858440000 
3047.9569489659   6637420000 
3078.4365184556   6436870000 
3109.2208836401   6217320000 
3140.3130924765   5950760000 
3171.7162234013   5757510000 
3203.4333856353   5519585000 
3235.4677194916   5389610000 
3267.8223966866   5185210000 
3300.5006206534   4974470000 
3333.50562686   4787630000 
3366.8406831286   4655475000 
3400.5090899598   4464360000 
3434.5141808594   4311850000 
3468.859322668   4196985000 
3503.5479158947   4030875000 
3538.5833950537   3866440000 
3573.9692290042   3750910000 
3609.7089212942   3604362000 
3645.8060105072 3098736666.6667 
3682.2640706123   3015430000 
3719.0867113184   3014160000 
3756.2775784316   3041530000 
3793.8403542159   2982615000 
3831.778757758   2972015000 
3870.0965453356   2720900000 
3908.797510789   2824610000 
3947.8854858969   2632150000 
3987.3643407558   2637440000 
4027.2379841634   2525240000 
4067.510364005   2426530000 
4108.1854676451   2290045000 
4149.2673223215 2263143333.3333 
4190.7599955447   2153435000 
4232.6675955002   2095615000 
4274.9942714552   2021795000 
4317.7442141697   1872630000 
4360.9216563114   1879845000 
4404.5308728746   1818355000 
4448.5761816033 1743983333.3333 
4493.0619434193   1670480000 
4537.9925628535   1605085000 
4583.3724884821   1568585000 
4629.2062133669 1494806666.6667 
4675.4982755006   1423045000 
4722.2532582556   1405635000 
4769.4757908381 1350546666.6667 
4817.1705487465   1286720000 
4865.342254234 1222113333.3333 
4913.9956767763   1201135000 
4963.1356335441 1157143333.3333 
5012.7669898795   1114360000 
5062.8946597783 1074383333.3333 
5113.5236063761   1035115000 
5164.6588424398 998247333.33333 
5216.3054308642    962218500 
5268.4684851729 928315333.33333 
5321.1531700246    889865000 
5374.3647017249    850845500 
5428.1083487421    829484000 
5482.3894322295 795528333.33333 
5537.2133265518    762752000 
5592.5854598173    738176000 
5648.5113144155 710026333.33333 
5704.9964275597 636045666.66667 
5762.0463918353 612087666.66667 
5819.6668557536    595207000 
5877.8635243112    584655000 
5936.6421595543 577105666.66667 
5996.0085811498    563567000 
6055.9686669613 543825333.33333 
6116.5283536309 523709666.66667 
6177.6936371672 504945666.66667 
6239.4705735389 487475333.33333 
6301.8652792743 468919333.33333 
6364.883932067    451999000 
6428.5327713877    434914750 
6492.8180991016 413949666.66667 
6557.7462800926 393562666.66667 
6623.3237428935    388691000 
6689.5569803225    372219500 
6756.4525501257    359308000 
6824.0170756269    344114000 
6892.2572463832 332152333.33333 
6961.179818847    319528750 
7030.7916170355 307227333.33333 
7101.0995332059    295323500 
7172.1105285379 284665333.33333 
7243.8316338233    274747750 
7316.2699501615 264860666.66667 
7389.4326496631    255291750 
7463.3269761598    244934500 
7537.9602459214    234083750 
7613.3398483806 226966666.66667 
7689.4732468644    218965500 
7766.367979333    210602250 
7844.0316591264    202362000 
7922.4719757176    194683750 
8001.6966954748    187316750 
8081.7136624296    180298250 
8162.5307990539    168963250 
8244.1561070444    159298500 
8326.5976681148    153680750 
8409.863644796    148151000 
8493.9622812439    143199500 
8578.9019040564    139265250 
8664.6909230969    134763000 
8751.3378323279    131838750 
8838.8512106512    126347500 
8927.2397227577    122265200 
9016.5121199853    118022250 
9106.6772411851    114356000 
9197.744013597    107710750 
9289.721453733    105471400 
9382.6186682703    101782200 
9476.444854953     95814660 
9571.2093035025     94140600 
9666.9213965375     90716540 
9763.5906105029     87135940 
9861.226516608     83901960 
9959.838781774 80341506.666667 
10059.437169592     76199150 
10160.031541288     74963550 
10261.631856701     72115850 
10364.248175268     69276900 
10467.89065702     66937500 
10572.56956359 63915766.666667 
10678.295259226     61054950 
10785.078211819     58793500 
10892.928993937     55523200 
11001.858283876     54813300 
11111.876866715     52937500 
11222.995635382     50690400 
11335.225591736     48548100 
11448.577847653     46916900 
11563.06362613 44668266.666667 
11678.694262391     43121550 
11795.481205015     41707300 
11913.436017065 40008066.666667 
12032.570377236     38424250 
12152.896081008     37208250 
12274.425041818 35749766.666667 
12397.169292236     34358150 
12521.140985159 33035133.333333 
12646.35239501     31776050 
12772.81591896 30091233.333333 
12900.54407815     29206400 
13029.549518932     28127600 
13159.845014121     27098000 
13291.443464262     26111600 
13424.357898905     25171500 
13558.601477894 24098666.666667 
13694.187492673 23081633.333333 
13831.129367599     22273600 
13969.440661275     21502500 
14109.135067888 20619133.333333 
14250.226418567 19779533.333333 
14392.728682753     18985700 
14536.65596958 18231993.333333 
14682.022529276 17450433.333333 
14828.842754569 16832766.666667 
14977.131182115     16181300 
15126.902493936     15561800 
15278.171518875 14968833.333333 
15430.953234064     14403200 
15585.262766404     13862500 
15741.115394068 13354166.666667 
15898.526548009 12822328.571429 
16057.511813489     12288600 
16218.086931624     11895650 
16380.26780094     11393100 
16544.07047895     11083950 
16709.511183739     10492700 
16876.606295577     10205300 
17045.372358532      9851390 
17215.826082118      9334355 
17387.984342939      8987985 
17561.864186368      8694760 
17737.482828232      8408815 
17914.857656514      8044720 
18094.006233079      7615535 
18274.94629541      7373695 
18457.695758364      7140760 
18642.272715948      6781470 
18828.695443107      6631305 
19016.982397539      6358835 
19207.152221514      6101015 
19399.223743729      5786655 
19593.215981166      5625965 
19789.148140978      5404810 
19987.039622388      5194505 
20186.910018612      4994275 
20388.779118798      4802975 
20592.666909986      4620460 
20798.593579086      4448560 
21006.579514877      4282580 
21216.645310025      4125925 
21428.811763126      3974660 
21643.099880757 3761716.6666667 
21859.530879564      3628420 
22078.12618836      3500200 
22298.907450244      3377550 
22521.896524746      3260240 
22747.115489993 3123146.6666667 
22974.586644893      2991710 
23204.332511342      2890890 
23436.375836456 2770856.6666667 
23670.73959482      2656630 
23907.446990769      2569630 
24146.521460676 2465806.6666667 
24387.986675283      2367115 
24631.866542036 2273196.6666667 
24878.185207456      2184045 
25126.967059531 2098763.3333333 
25378.236730126      2018405 
25632.019097427 1940133.3333333 
25888.339288402      1867150 
26147.222681286      1776100 
26408.694908098 1718246.6666667 
26672.781857179      1649110 
26939.509675751 1595523.3333333 
27208.904772509 1526816.6666667 
27480.993820234      1455340 
27755.803758436      1410215 
28033.361796021      1360990 
28313.695413981 1304633.3333333 
28596.832368121 1243523.3333333 
28882.800691802 1200386.6666667 
29171.62869872 1152163.3333333 
29463.344985707 1106323.3333333 
29757.978435564 1062736.6666667 
30055.55821992      1016116 
30356.113802119       979010 
30659.67494014 944204.33333333 
30966.271689541       908413 
31275.934406437 874290.66666667 
31588.693750501 841736.33333333 
31904.580688006     811678.4 
32223.626494886       776275 
32545.862759835       748111 
32871.321387434       715167 
33200.034601308     687830.5 
33532.034947321       663639 
33867.355296794       640562 
34206.028849762     611296.5 
34548.08913826       590396 
34893.570029642     570448.5 
35242.505729939     545106.5 
35594.930787238       521132 
35950.880095111     498466.5 
36310.388896062       482249 
36673.492785022     466722.5 
37040.227712872     445257.5 
37410.629990001       425566 
37784.736289901     410432.5 
38162.5836528     393609.5 
38544.209489328       377614 
38929.651584221     362185.5 
39318.948100064     347963.5 
39712.137581064       334045 
40109.258956875     318033.5 
40510.351546444     308727.5 
40915.455061908       296880 
41324.609612527     284887.5 
41737.855708653     274859.5 
42155.234265739     264615.5 
42576.786608396     254828.5 
43002.55447448     245508.5 
43432.580019225       235786 
43866.905819417       225900 
44305.574877612     216074.5 
44748.630626388       208502 
45196.116932652       201234 
45648.078101978 192589.33333333 
46104.558882998     182320.5 
46565.604471828     176847.5 
47031.260516546       170714 
47501.573121712       163648 
47976.588852929       158264 
48456.354741458 151850.33333333 
48940.918288873       145738 
49430.327471761 139947.66666667 
49924.630746479       134424 
50423.877053944       129187 
50928.115824483       123135 
51437.396982728 119409.66666667 
51951.770952555       114901 
52471.288662081       110589 
52996.001548702 105672.33333333 
53525.961564189     101773.5 
54061.221179831      98065.9 
54601.833391629 93828.933333333 
55147.851725545     90465.35 
55699.330242801      87262.5 
56256.323545229      83597.3 
56818.886780681 80089.066666667 
57387.075648488 76823.533333333 
57960.946404973      73698.8 
58540.555869022      70194.9 
59125.961427713 67788.966666667 
59717.22104199      65224.8 
60314.39325241      62670.7 
60917.537184934 60239.766666667 
61526.712556783      57924.4 
62141.979682351        55712 
62763.399479174 53485.266666667 
63391.033473966 51615.366666667 
64024.943808706 49308.142857143 
64665.193246793      47582.2 
65311.845179261     45858.95 
65964.963631053     43675.25 
66624.613267364      42118.4 
67290.859400038      40503.8 
67963.767994038      38757.5 
68643.405673978      37415.9 
69329.839730718     36136.85 
70023.138128025     34511.65 
70723.369509305     32976.85 
71430.603204399      31878.4 
72144.909236443      30829.9 
72866.358328807      29495.3 
73595.021912095      28227.4 
74330.972131216      26509.6 
75074.281852528      25884.2 
75825.024671053      25088.4 
76583.274917764      24310.1 
77349.107666942      23315.9 
78122.598743611      22372.3 
78903.824731047      21475.8 
79692.862978358     20623.65 
80489.791608141      19813.3 
81294.689524223     19033.15 
82107.636419465     18307.75 
82928.712783659     17608.75 
83757.999911496      16942.6 
84595.579910611      16155.1 
85441.535709717     15409.55 
86295.951066814     14824.95 
87158.910577482     14207.15 
88030.499683257      13791.3 
88910.80468009     13299.55 
89799.912726891 12716.233333333 
90697.91185416     12162.05 
91604.890972701      11741.4 
92520.939882428 11241.333333333 
93446.149281253      10734.9 
94380.610774065     10404.45 
95324.416881806 9974.0166666667 
96277.661050624     9564.245 
97240.43766113 9176.5866666667 
98212.842037741     8806.955 
99194.970458119      8525.35 
100186.9201627      8320.68 
199060.83304441      510.301 
399467.9878358      30.9224 
594753.39981818      5.99222 
793700.71765891      1.86947 
997811.18987739     0.757189 
1193529.3359837     0.361766 
1399507.0114645     0.193708 
