#  WAVELENGTH	        FLUX	
#  (ANGSTROM)	(ERG/CM2/S/A)	
############	############	
146.55135046134  1.10648E-22 
150.99200293167  9.59183E-22 
154.02694219059  7.81925E-21 
158.69411256591  4.27621E-20 
161.88386422848  1.81748E-19 
165.13772989948   1.0257E-18 
170.14156825316  6.01504E-18 
171.84298393569   2.0408E-17 
175.2970279128  7.41306E-17 
178.82049817385  2.56536E-16 
180.60870315558  4.36936E-16 
186.0813274699  1.98573E-15 
189.82156215205  9.86731E-15 
193.6369755513  2.44432E-14 
197.52907875988  9.48693E-14 
201.49941324296  2.54763E-13 
203.51440737539  6.27957E-13 
209.68109743327  2.75876E-12 
216.03464436659  1.18252E-11 
218.19499081026  2.85316E-11 
222.58071012555  6.07871E-11 
224.8065172268  1.45431E-10 
229.32512822306  3.60551E-10 
233.93456330034  9.37697E-10 
238.63664802268   3.27322E-9 
245.86757709442   1.17293E-8 
250.80951539401   3.53296E-8 
255.85078665343   7.70413E-8 
258.40929451997   1.35745E-7 
263.60332133982   2.67153E-7 
266.23935455322   5.57317E-7 
271.59076557974   1.22519E-6 
277.04973996789   2.62484E-6 
282.61843974125   5.88103E-6 
288.29907038004    1.3655E-5 
294.09388169468   3.05677E-5 
300.00516871675   5.84592E-5 
306.03527260795  0.000138883 
315.30844740325   0.00045331 
324.86260866801   0.00135972 
334.70627057326   0.00383806 
344.8482052779    0.0101561 
355.29745074603    0.0233317 
362.43892950602    0.0513308 
373.42119150899     0.107858 
384.7362270329     0.236555 
392.46942519626     0.496696 
404.36164124913      1.00471 
412.48931023824        1.838 
420.78034537403      3.06532 
429.23803031605      5.00162 
437.8657147254      9.57279 
446.66681559138      16.7365 
455.64481858477      27.0263 
469.4513122327      45.0336 
478.88728360858      73.2744 
488.51291800911      116.805 
498.3320276611      182.322 
503.31534793771      1711.38 
508.34850141708      6488.14 
518.56630629557      8506.52 
528.98948905211      12294.8 
539.62217778206      15162.2 
545.01839955988      22784.4 
555.97326939103      29528.1 
567.14833210579        39402 
578.54801358112      44526.7 
584.33349371693      63205.5 
596.07859694064      81726.4 
608.05977673914       105122 
614.14037450653       128063 
626.48459603412       158238 
639.0769364144       185670 
645.46770577855       217487 
651.92238283633       270285 
658.44160666469       301528 
671.67628295866       353443 
678.39304578824       418531 
692.02874600859       507186 
698.94903346867       589503 
712.99790904139       697110 
720.12788813181       802883 
734.60245868325       909702 
741.94848327009      1064100 
749.36796810279      1225380 
764.43026426165      1399350 
772.07456690427      1600750 
779.79531257331      1820180 
787.59326569905      2031520 
803.4238903396      2281630 
811.45812924299      2533110 
819.57271053542      2859750 
827.76843764078      3105580 
844.40658323736      3470340 
852.85064906973      3841840 
861.37915556043      4267460 
869.99294711603      4731950 
878.69287658719      5259710 
887.47980535306      5758950 
896.3546034066      6102940 
914.37133093507     11236300 
923.51504424442     42660500 
932.75019468686     96153600 
942.07769663373    397447000 
951.49847360007   1255110000 
961.01345833607   1857990000 
970.62359291943    370154000 
980.32982884862   3226670000 
990.13312713711   3381840000 
1000.0344584085   4052170000 
1010.0348029926   2980160000 
1020.1351510225    319903000 
1030.3365025327   1735160000 
1040.639867558   4929820000 
1051.0462662336   5193540000 
1061.556728896   4163130000 
1072.1722961849   5157600000 
1082.8940191468   4582960000 
1093.7229593382   5218490000 
1104.6601889316   4509825000 
1115.7067908209   4346480000 
1126.8638587291   5283540000 
1138.1324973164   4542220000 
1149.5138222896   4905860000 
1161.0089605125   5223940000 
1172.6190501176   4153620000 
1184.3452406188   4038730000 
1196.188693025   1723740000 
1208.1505799552    361870000 
1220.2320857548   1757700000 
1232.4344066123   4434890000 
1244.7587506785   5050845000 
1257.2063381852   4372050000 
1269.7784015671   4926670000 
1282.4761855828   4403185000 
1295.3009474386   3023980000 
1308.253956913   4827350000 
1321.3364964821   4615720000 
1334.5498614469   4375065000 
1347.8953600614   4521110000 
1361.374313662   4047080000 
1374.9880567986   4209490000 
1388.7379373666   3883210000 
1402.6253167403   3940020000 
1416.6515699077   3963170000 
1430.8180856068 3986977647.0588 
1445.1262664628   4009940000 
1459.5775291275   3731970000 
1474.1733044187   3616095000 
1488.9150374629   3619930000 
1503.8041878376 3267288636.3636 
1518.8422297159   3268490000 
1534.0306520131   3037165000 
1549.3709585332   2906620000 
1564.8646681186   2973280000 
1580.5133147997   3102750000 
1596.3184479477   3008120000 
1612.2816324272   2939030000 
1628.4044487515   2973430000 
1644.688493239   2843265000 
1661.1353781714 2891322727.2727 
1677.7467319531   2935580000 
1694.5241992726   2714615000 
1711.4694412654   2471675000 
1728.584135678   2520680000 
1745.8699770348   2575690000 
1763.3286768051   2385220000 
1780.9619635732   2472760000 
1798.7715832089   2399150000 
1816.759299041   2358820000 
1834.9268920314   2172310000 
1853.2761609517   2043335000 
1871.8089225613   2129035000 
1890.5270117869   1989110000 
1909.4322819047   1921720000 
1928.5266047238   1969910000 
1947.811870771 1917884545.4545 
1967.2899894787 1976764117.6471 
1986.9628893735 1867554285.7143 
2006.8325182673   1865640000 
2026.9008434499   1800855000 
2047.1698518844   1747740000 
2067.6415504033   1779896000 
2088.3179659073   1685425000 
2109.2011455664   1702910000 
2130.293157022   1630730000 
2151.5960885923   1636665000 
2173.1120494782   1573230000 
2194.843169973 1539536666.6667 
2216.7916016727   1465905000 
2238.9595176894   1426700000 
2261.3491128663   1429210000 
2283.962603995 1393406666.6667 
2306.8022300349   1308890000 
2329.8702523353   1235700000 
2353.1689548586   1215910000 
2376.7006444072   1180980000 
2400.4676508513   1157555000 
2424.4723273598   1149930000 
2448.7170506334   1127270000 
2473.2042211397 1101476666.6667 
2497.9362633511 1089911739.1304 
2522.9156259846 1029395925.9259 
2548.1447822445   1031755000 
2573.6262300669 1043286666.6667 
2599.3624923676   1005268000 
2625.3561172913   1006486000 
2651.6096784642 986595333.33333 
2678.1257752488    961942500 
2704.9070330013    932745000 
2731.9561033313 897856333.33333 
2759.2756643647 888131333.33333 
2786.8684210083    853489500 
2814.7371052184    850540000 
2842.8844762706 822754666.66667 
2871.3133210333 810738666.66667 
2900.0264542436    802967000 
2929.026718786    773746000 
2958.3169859739    757612000 
2987.9001558336    738930000 
3017.779157392    726100000 
3047.9569489659    704864500 
3078.4365184556    687916000 
3109.2208836401    669027000 
3140.3130924765    646979000 
3171.7162234013    622918000 
3203.4333856353    614258500 
3235.4677194916    599987000 
3267.8223966866    586355000 
3300.5006206534    568261000 
3333.50562686    552985000 
3366.8406831286    540398500 
3400.5090899598    523388000 
3434.5141808594    509713000 
3468.859322668    498274500 
3503.5479158947    484079000 
3538.5833950537    469974500 
3573.9692290042    457492000 
3609.7089212942    446822400 
3645.8060105072    434822000 
3682.2640706123    418165500 
3719.0867113184    406617500 
3756.2775784316    445331500 
3793.8403542159    461712000 
3831.778757758    535663500 
3870.0965453356    392461000 
3908.797510789    542846000 
3947.8854858969    448614000 
3987.3643407558    509915500 
4027.2379841634    495523500 
4067.510364005    459998500 
4108.1854676451    408851000 
4149.2673223215 458791333.33333 
4190.7599955447    445491500 
4232.6675955002    427771000 
4274.9942714552    412778000 
4317.7442141697    326997000 
4360.9216563114    380043500 
4404.5308728746    378588000 
4448.5761816033 359169333.33333 
4493.0619434193    353086500 
4537.9925628535    342692500 
4583.3724884821    332844500 
4629.2062133669    320215000 
4675.4982755006    306699500 
4722.2532582556    298792000 
4769.4757908381    289208000 
4817.1705487465    258741000 
4865.342254234 245768333.33333 
4913.9956767763    256854500 
4963.1356335441 250522666.66667 
5012.7669898795    241045500 
5062.8946597783 235139666.66667 
5113.5236063761    226696000 
5164.6588424398 219314666.66667 
5216.3054308642    212821500 
5268.4684851729    206078000 
5321.1531700246 198151333.33333 
5374.3647017249    192090500 
5428.1083487421 185665666.66667 
5482.3894322295 179162666.66667 
5537.2133265518 172655666.66667 
5592.5854598173    167456000 
5648.5113144155    161699000 
5704.9964275597 156637666.66667 
5762.0463918353 151070666.66667 
5819.6668557536 144356333.33333 
5877.8635243112 140415333.33333 
5936.6421595543    135533000 
5996.0085811498    131188000 
6055.9686669613 126705666.66667 
6116.5283536309    122310000 
6177.6936371672 118365666.66667 
6239.4705735389    114315000 
6301.8652792743 110376333.33333 
6364.883932067    106838000 
6428.5327713877    102977500 
6492.8180991016 96074633.333333 
6557.7462800926     88782800 
6623.3237428935 92708133.333333 
6689.5569803225     89537125 
6756.4525501257 86477333.333333 
6824.0170756269     83435375 
6892.2572463832 80476466.666667 
6961.179818847     77707475 
7030.7916170355     74667800 
7101.0995332059     72431200 
7172.1105285379 69848933.333333 
7243.8316338233     67550650 
7316.2699501615 65394433.333333 
7389.4326496631     63209975 
7463.3269761598     60822650 
7537.9602459214     58606650 
7613.3398483806 56721833.333333 
7689.4732468644     54907525 
7766.367979333     52817300 
7844.0316591264     50929425 
7922.4719757176     49161825 
8001.6966954748     47506625 
8081.7136624296     45833825 
8162.5307990539     44182800 
8244.1561070444     42729175 
8326.5976681148     41302225 
8409.863644796     39649240 
8493.9622812439     38049875 
8578.9019040564     36682925 
8664.6909230969     34911920 
8751.3378323279     35521650 
8838.8512106512     32734300 
8927.2397227577     32838120 
9016.5121199853     31781800 
9106.6772411851     31839540 
9197.744013597     28025450 
9289.721453733     29775660 
9382.6186682703     28642200 
9476.444854953     25572540 
9571.2093035025     26420025 
9666.9213965375     25794380 
9763.5906105029     24852700 
9861.226516608     23903740 
9959.838781774 22345013.333333 
10059.437169592     21216950 
10160.031541288     21488400 
10261.631856701     20711850 
10364.248175268     20009150 
10467.89065702     19304700 
10572.56956359 18458466.666667 
10678.295259226     17683150 
10785.078211819     16909800 
10892.928993937     15265300 
11001.858283876     15884650 
11111.876866715     15434700 
11222.995635382     14782700 
11335.225591736     14207450 
11448.577847653     13753000 
11563.06362613 13201533.333333 
11678.694262391     12674500 
11795.481205015     12289750 
11913.436017065     11796400 
12032.570377236     11368000 
12152.896081008     11022400 
12274.425041818 10608966.666667 
12397.169292236     10210950 
12521.140985159      9832900 
12646.35239501      9457685 
12772.81591896 8688556.6666667 
12900.54407815      8724510 
13029.549518932      8436625 
13159.845014121 8139263.3333333 
13291.443464262      7857035 
13424.357898905      7584750 
13558.601477894      7275040 
13694.187492673 6981246.6666667 
13831.129367599      6747115 
13969.440661275      6523240 
14109.135067888      6266470 
14250.226418567 6022273.3333333 
14392.728682753 5787453.3333333 
14536.65596958 5568318.3333333 
14682.022529276      5359090 
14828.842754569 5160466.6666667 
14977.131182115      4968590 
15126.902493936 4786926.6666667 
15278.171518875      4608770 
15430.953234064      4436020 
15585.262766404 4270043.3333333 
15741.115394068      4112930 
15898.526548009 3974127.1428571 
16057.511813489      3763500 
16218.086931624      3709945 
16380.26780094      3482840 
16544.07047895      3498920 
16709.511183739      3234730 
16876.606295577      3228610 
17045.372358532      3126940 
17215.826082118      2899090 
17387.984342939      2848080 
17561.864186368      2775030 
17737.482828232      2686325 
17914.857656514      2568210 
18094.006233079      2372795 
18274.94629541      2364465 
18457.695758364      2291460 
18642.272715948      2149235 
18828.695443107      2127975 
19016.982397539      2047875 
19207.152221514      1961300 
19399.223743729      1823670 
19593.215981166      1819950 
19789.148140978      1750925 
19987.039622388      1684825 
20186.910018612      1621800 
20388.779118798      1560685 
20592.666909986      1504335 
20798.593579086      1449630 
21006.579514877      1396180 
21216.645310025      1347240 
21428.811763126      1294970 
21643.099880757      1211630 
21859.530879564      1189270 
22078.12618836      1148480 
22298.907450244      1109410 
22521.896524746      1071935 
22747.115489993 1027436.6666667 
22974.586644893     985152.5 
23204.332511342       952976 
23436.375836456 914610.66666667 
23670.73959482       878038 
23907.446990769     850022.5 
24146.521460676       816694 
24387.986675283     784769.5 
24631.866542036       754319 
24878.185207456       725117 
25126.967059531 697401.33333333 
25378.236730126       672285 
25632.019097427       645825 
25888.339288402       622131 
26147.222681286       583271 
26408.694908098       574854 
26672.781857179     546380.5 
26939.509675751       537208 
27208.904772509 513897.33333333 
27480.993820234       483970 
27755.803758436       476601 
28033.361796021 460348.33333333 
28313.695413981 441234.33333333 
28596.832368121 414149.33333333 
28882.800691802 407010.33333333 
29171.62869872 391212.33333333 
29463.344985707 376004.66666667 
29757.978435564 361518.66666667 
30055.55821992       342228 
30356.113802119 330874.66666667 
30659.67494014       322015 
30966.271689541 310111.33333333 
31275.934406437 298717.66666667 
31588.693750501       287836 
31904.580688006     277785.6 
32223.626494886     265922.5 
32545.862759835       256174 
32871.321387434       241658 
33200.034601308     235745.5 
33532.034947321       227739 
33867.355296794     220030.5 
34206.028849762       210210 
34548.08913826       203178 
34893.570029642       196472 
35242.505729939     187927.5 
35594.930787238       179842 
35950.880095111     172175.5 
36310.388896062       166641 
36673.492785022     161367.5 
37040.227712872       153214 
37410.629990001       146370 
37784.736289901       142257 
38162.5836528       136591 
38544.209489328       131267 
38929.651584221     125723.5 
39318.948100064     121417.5 
39712.137581064     116218.5 
40109.258956875     109768.5 
40510.351546444       107784 
40915.455061908     103903.5 
41324.609612527      98940.1 
41737.855708653     96151.35 
42155.234265739      92810.3 
42576.786608396        89423 
43002.55447448      86228.3 
43432.580019225      82152.1 
43866.905819417 79226.933333333 
44305.574877612     76109.35 
44748.630626388     73534.55 
45196.116932652     71005.25 
45648.078101978 67919.466666667 
46104.558882998      63646.5 
46565.604471828     61600.05 
47031.260516546 60320.133333333 
47501.573121712      57951.4 
47976.588852929     56078.15 
48456.354741458      53842.5 
48940.918288873     51709.55 
49430.327471761      49689.2 
49924.630746479     47757.25 
50423.877053944 45885.133333333 
50928.115824483     43184.65 
51437.396982728 42384.833333333 
51951.770952555     40926.05 
52471.288662081 39388.533333333 
52996.001548702      37688.5 
53525.961564189      36254.8 
54061.221179831 35016.466666667 
54601.833391629 33505.333333333 
55147.851725545     32272.65 
55699.330242801      31214.2 
56256.323545229 29922.633333333 
56818.886780681 28594.133333333 
57387.075648488 27532.833333333 
57960.946404973 26428.466666667 
58540.555869022      24943.7 
59125.961427713        24178 
59717.22104199 23427.366666667 
60314.39325241        22544 
60917.537184934 21681.733333333 
61526.712556783 20860.266666667 
62141.979682351 20033.033333333 
62763.399479174      19143.5 
63391.033473966 18618.133333333 
64024.943808706 17797.314285714 
64665.193246793      17182.5 
65311.845179261     16568.65 
65964.963631053     15790.25 
66624.613267364      15234.6 
67290.859400038     14542.25 
67963.767994038      14023.8 
68643.405673978      13554.7 
69329.839730718      13097.6 
70023.138128025     12516.15 
70723.369509305     11966.35 
71430.603204399      11573.2 
72144.909236443        11197 
72866.358328807     10718.75 
73595.021912095     10246.85 
74330.972131216         9495 
75074.281852528     9388.975 
75825.024671053      9135.97 
76583.274917764     8856.215 
77349.107666942      8482.24 
78122.598743611      8157.31 
78903.824731047      7835.99 
79692.862978358     7528.765 
80489.791608141     7236.705 
81294.689524223      6932.52 
82107.636419465     6693.435 
82928.712783659     6440.695 
83757.999911496      6200.07 
84595.579910611 5914.9666666667 
85441.535709717     5641.765 
86295.951066814      5404.39 
87158.910577482     5155.965 
88030.499683257     5057.515 
88910.80468009     4880.785 
89799.912726891 4668.9266666667 
90697.91185416      4467.88 
91604.890972701     4314.975 
92520.939882428       4130.7 
93446.149281253     3918.845 
94380.610774065     3827.555 
95324.416881806      3672.06 
96277.661050624       3522.8 
97240.43766113       3381.5 
98212.842037741     3246.735 
99194.970458119      3143.94 
100186.9201627      3069.37 
199060.83304441      192.519 
399467.9878358      11.8279 
594753.39981818      2.30841 
793700.71765891     0.724499 
997811.18987739     0.295021 
1193529.3359837     0.141653 
1399507.0114645    0.0761938 
