#  WAVELENGTH	        FLUX	
#  (ANGSTROM)	(ERG/CM2/S/A)	
############	############	
        90.9  8.65594E-10 
    92.72709   3.12833E-9 
95.53681355409    1.0509E-8 
97.457103506527   2.17127E-8 
99.415991287008    4.9559E-8 
101.41425271188   1.34781E-7 
103.45267919139   2.77603E-7 
105.53207804313   5.58405E-7 
107.6532728118   1.22672E-6 
109.81710359532    3.2356E-6 
113.14467165136   1.10103E-5 
117.73879903054   3.71659E-5 
120.10534889105  0.000106938 
123.7446610678  0.000290523 
126.23192875526  0.000544558 
127.49424804281  0.000769315 
130.05688242847    0.0013248 
131.35745125276   0.00213693 
132.67102576529   0.00309068 
135.33771338317   0.00587782 
139.43858143639    0.0122809 
142.24129692326    0.0264364 
146.55135046134    0.0590726 
150.99200293167     0.127247 
154.02694219059     0.281339 
158.69411256591     0.538232 
161.88386422848     0.933155 
165.13772989948      1.82227 
170.14156825316      3.59232 
171.84298393569       5.7633 
175.2970279128      9.52665 
178.82049817385      15.4082 
180.60870315558      18.9501 
186.0813274699      34.2519 
189.82156215205      64.0671 
193.6369755513      91.6244 
197.52907875988      156.205 
201.49941324296      229.443 
203.51440737539      326.627 
209.68109743327      584.613 
216.03464436659      1030.03 
218.19499081026      1464.83 
222.58071012555       1972.4 
224.8065172268       2781.7 
229.32512822306      1226050 
233.93456330034      3782030 
238.63664802268      5380590 
245.86757709442      7615540 
250.80951539401     11803500 
255.85078665343     15225500 
258.40929451997     20530700 
263.60332133982     45014400 
266.23935455322     64626000 
271.59076557974     77333300 
277.04973996789     73333100 
282.61843974125    139634000 
288.29907038004    182891000 
294.09388169468    188077000 
300.00516871675    345244000 
306.03527260795   1801920000 
315.30844740325   1437900000 
324.86260866801   2216560000 
334.70627057326   2510430000 
344.8482052779   3112360000 
355.29745074603   6839440000 
362.43892950602  12966000000 
373.42119150899  15595400000 
384.7362270329  15612900000 
392.46942519626  23672300000 
404.36164124913  30786000000 
412.48931023824  28956600000 
420.78034537403  28634900000 
429.23803031605  26560600000 
437.8657147254  29850800000 
446.66681559138  30766200000 
455.64481858477  26684500000 
469.4513122327  27573400000 
478.88728360858  30686200000 
488.51291800911  25594500000 
498.3320276611  30706500000 
503.31534793771  30359400000 
508.34850141708  84185900000 
518.56630629557  77493100000 
528.98948905211  69539000000 
539.62217778206  61325800000 
545.01839955988  61047600000 
555.97326939103  79008800000 
567.14833210579  83650500000 
578.54801358112  78754000000 
584.33349371693  79862300000 
596.07859694064  65363800000 
608.05977673914  69623800000 
614.14037450653  83343200000 
626.48459603412  79040300000 
639.0769364144  82405200000 
645.46770577855  78161900000 
651.92238283633  67779800000 
658.44160666469  77202300000 
671.67628295866  82576000000 
678.39304578824  68678900000 
692.02874600859  79655200000 
698.94903346867  66819500000 
712.99790904139  80812700000 
720.12788813181  79588000000 
734.60245868325  79854500000 
741.94848327009  74487300000 
749.36796810279  73320500000 
764.43026426165  69974000000 
772.07456690427  72006000000 
779.79531257331  69376200000 
787.59326569905  71272100000 
803.4238903396  69308700000 
811.45812924299  68866200000 
819.57271053542  69454100000 
827.76843764078  59571200000 
844.40658323736  66199900000 
852.85064906973  64304900000 
861.37915556043  65464800000 
869.99294711603  64700300000 
878.69287658719  63698700000 
887.47980535306  62932100000 
896.3546034066  60799400000 
914.37133093507  49713400000 
923.51504424442  85836300000 
932.75019468686 120553000000 
942.07769663373 152957000000 
951.49847360007 169689000000 
961.01345833607 196314000000 
970.62359291943 120605000000 
980.32982884862 172301000000 
990.13312713711 151659000000 
1000.0344584085 154407000000 
1010.0348029926 158825000000 
1020.1351510225 124778000000 
1030.3365025327 156847000000 
1040.639867558 166927000000 
1051.0462662336 160758000000 
1061.556728896 146670000000 
1072.1722961849 147686000000 
1082.8940191468 133626000000 
1093.7229593382 141458000000 
1104.6601889316 133847000000 
1115.7067908209 120411000000 
1126.8638587291 127314000000 
1138.1324973164 124448000000 
1149.5138222896 116171000000 
1161.0089605125 110611000000 
1172.6190501176  88687900000 
1184.3452406188 100580050000 
1196.188693025  95623600000 
1208.1505799552  74257700000 
1220.2320857548  89654700000 
1232.4344066123  92815100000 
1244.7587506785  90195250000 
1257.2063381852  90473200000 
1269.7784015671  91103600000 
1282.4761855828  88427550000 
1295.3009474386  84706700000 
1308.253956913  85852500000 
1321.3364964821  83327600000 
1334.5498614469  80786700000 
1347.8953600614  77315000000 
1361.374313662  74732300000 
1374.9880567986  71460050000 
1388.7379373666  65170100000 
1402.6253167403  65280250000 
1416.6515699077  61262000000 
1430.8180856068 63259441176.471 
1445.1262664628 60399561538.462 
1459.5775291275  58834600000 
1474.1733044187  58046000000 
1488.9150374629  56191900000 
1503.8041878376 55188290909.091 
1518.8422297159  52993700000 
1534.0306520131  44402100000 
1549.3709585332  41319800000 
1564.8646681186  45151300000 
1580.5133147997  45162350000 
1596.3184479477  42377500000 
1612.2816324272  40943700000 
1628.4044487515  40564600000 
1644.688493239  40008500000 
1661.1353781714 39202136363.636 
1677.7467319531  39724000000 
1694.5241992726  38334800000 
1711.4694412654  35897000000 
1728.584135678  35947050000 
1745.8699770348  34792100000 
1763.3286768051  33835800000 
1780.9619635732  32941750000 
1798.7715832089  31744700000 
1816.759299041  30706200000 
1834.9268920314  30250450000 
1853.2761609517  29446850000 
1871.8089225613  28117250000 
1890.5270117869  27641000000 
1909.4322819047  26302150000 
1928.5266047238  26159150000 
1947.811870771 24827436363.636 
1967.2899894787 24566411764.706 
1986.9628893735 23783404761.905 
2006.8325182673  23215950000 
2026.9008434499  22332600000 
2047.1698518844  16374800000 
2067.6415504033  16551850000 
2088.3179659073  19290300000 
2109.2011455664  19755800000 
2130.293157022  19195350000 
2151.5960885923  18466900000 
2173.1120494782  18094500000 
2194.843169973 17577766666.667 
2216.7916016727  17150200000 
2238.9595176894  16274650000 
2261.3491128663  16159550000 
2283.962603995  15099200000 
2306.8022300349  14893600000 
2329.8702523353  14505250000 
2353.1689548586  13851000000 
2376.7006444072  12950250000 
2400.4676508513  12949800000 
2424.4723273598 12580133333.333 
2448.7170506334  12120600000 
2473.2042211397 11227733333.333 
2497.9362633511 10880869565.217 
2522.9156259846 10911737037.037 
2548.1447822445  10563050000 
2573.6262300669 10189453333.333 
2599.3624923676 9809863333.3333 
2625.3561172913   9506340000 
2651.6096784642 9151983333.3333 
2678.1257752488   8863375000 
2704.9070330013 8597296666.6667 
2731.9561033313 8199156666.6667 
2759.2756643647 7966223333.3333 
2786.8684210083   7663895000 
2814.7371052184 7476843333.3333 
2842.8844762706 7213183333.3333 
2871.3133210333   6944520000 
2900.0264542436   6718170000 
2929.026718786   6492935000 
2958.3169859739   6250850000 
2987.9001558336   6000065000 
3017.779157392   5763240000 
3047.9569489659   5597815000 
3078.4365184556   5412180000 
3109.2208836401   5236970000 
3140.3130924765   5008630000 
3171.7162234013   4837540000 
3203.4333856353   4648295000 
3235.4677194916   4541110000 
3267.8223966866   4369115000 
3300.5006206534   4190035000 
3333.50562686   4034010000 
3366.8406831286   3927120000 
3400.5090899598   3769785000 
3434.5141808594   3634830000 
3468.859322668   3541355000 
3503.5479158947   3401895000 
3538.5833950537   3265055000 
3573.9692290042   3161910000 
3609.7089212942   3044888000 
3645.8060105072 2700306666.6667 
3682.2640706123   2605110000 
3719.0867113184   2552720000 
3756.2775784316   2532620000 
3793.8403542159   2492995000 
3831.778757758   2539890000 
3870.0965453356   2235650000 
3908.797510789   2449485000 
3947.8854858969   2214020000 
3987.3643407558   2278590000 
4027.2379841634   2183870000 
4067.510364005   2072160000 
4108.1854676451   1939680000 
4149.2673223215 1963333333.3333 
4190.7599955447   1875225000 
4232.6675955002   1818930000 
4274.9942714552   1749975000 
4317.7442141697   1572655000 
4360.9216563114   1623990000 
4404.5308728746   1580490000 
4448.5761816033   1509600000 
4493.0619434193   1449835000 
4537.9925628535   1395450000 
4583.3724884821   1362360000 
4629.2062133669   1291390000 
4675.4982755006   1234885000 
4722.2532582556   1224430000 
4769.4757908381   1177020000 
4817.1705487465   1105515000 
4865.342254234 1048565333.3333 
4913.9956767763   1039965000 
4963.1356335441 1006154666.6667 
5012.7669898795    969209500 
5062.8946597783    935870000 
5113.5236063761    901494000 
5164.6588424398 869164333.33333 
5216.3054308642    837621500 
5268.4684851729 808144333.33333 
5321.1531700246 774799666.66667 
5374.3647017249    740346500 
5428.1083487421    722060000 
5482.3894322295 692501666.66667 
5537.2133265518    664089000 
5592.5854598173    642518000 
5648.5113144155    618284000 
5704.9964275597    567129000 
5762.0463918353 545440333.33333 
5819.6668557536    524387000 
5877.8635243112 512039333.33333 
5936.6421595543 500091666.66667 
5996.0085811498    488212000 
6055.9686669613    472792000 
6116.5283536309 455664666.66667 
6177.6936371672    439289000 
6239.4705735389 423575666.66667 
6301.8652792743 408030666.66667 
6364.883932067 393412666.66667 
6428.5327713877    377680750 
6492.8180991016    358230000 
6557.7462800926    338034000 
6623.3237428935 337069666.66667 
6689.5569803225    323254750 
6756.4525501257    312061000 
6824.0170756269    299277500 
6892.2572463832    288441000 
6961.179818847    277457000 
7030.7916170355    266267000 
7101.0995332059    256783750 
7172.1105285379    247295000 
7243.8316338233    238427750 
7316.2699501615 230036333.33333 
7389.4326496631    221757750 
7463.3269761598    212647500 
7537.9602459214    203488500 
7613.3398483806 197087666.66667 
7689.4732468644    190092000 
7766.367979333    182889250 
7844.0316591264    175753500 
7922.4719757176    169109750 
8001.6966954748    162695250 
8081.7136624296    156576500 
8162.5307990539    148288000 
8244.1561070444    141176500 
8326.5976681148    136090750 
8409.863644796    130854600 
8493.9622812439    125898750 
8578.9019040564    121802000 
8664.6909230969    117246800 
8751.3378323279    114218750 
8838.8512106512    109107000 
8927.2397227577    105909000 
9016.5121199853    102140750 
9106.6772411851     99675380 
9197.744013597     92512725 
9289.721453733     92087980 
9382.6186682703     88794400 
9476.444854953     82364740 
9571.2093035025     81950450 
9666.9213965375     79099460 
9763.5906105029     76166580 
9861.226516608     73231740 
9959.838781774 69585126.666667 
10059.437169592     66017750 
10160.031541288     65438100 
10261.631856701     62907850 
10364.248175268     60592700 
10467.89065702     58432250 
10572.56956359     55782500 
10678.295259226     53292750 
10785.078211819     51154500 
10892.928993937     47662500 
11001.858283876     47759650 
11111.876866715     46193350 
11222.995635382     44220600 
11335.225591736     42350300 
11448.577847653     40928850 
11563.06362613 39056566.666667 
11678.694262391     37619000 
11795.481205015     36381600 
11913.436017065 34841866.666667 
12032.570377236     33517100 
12152.896081008     32459850 
12274.425041818 31188633.333333 
12397.169292236     29974650 
12521.140985159 28810766.666667 
12646.35239501     27713100 
12772.81591896 25954866.666667 
12900.54407815     25456400 
13029.549518932     24540450 
13159.845014121 23641333.333333 
13291.443464262     22781200 
13424.357898905     21958800 
13558.601477894     21025400 
13694.187492673 20137766.666667 
13831.129367599     19432550 
13969.440661275 18760866.666667 
14109.135067888 17991233.333333 
14250.226418567 17260233.333333 
14392.728682753 16566366.666667 
14536.65596958 15906516.666667 
14682.022529276 15244166.666667 
14828.842754569     14685800 
14977.131182115 14114866.666667 
15126.902493936 13578533.333333 
15278.171518875 13062433.333333 
15430.953234064     12569900 
15585.262766404 12097433.333333 
15741.115394068     11646400 
15898.526548009 11177728.571429 
16057.511813489     10720000 
16218.086931624     10373350 
16380.26780094      9932570 
16544.07047895      9683750 
16709.511183739      9131170 
16876.606295577      8912680 
17045.372358532      8597540 
17215.826082118      8122250 
17387.984342939      7842720 
17561.864186368      7598990 
17737.482828232      7348920 
17914.857656514      7027570 
18094.006233079      6611535 
18274.94629541      6444835 
18457.695758364      6238710 
18642.272715948      5895990 
18828.695443107      5791900 
19016.982397539      5552140 
19207.152221514      5326175 
19399.223743729      5019605 
19593.215981166      4917300 
19789.148140978      4724145 
19987.039622388      4540525 
20186.910018612      4365640 
20388.779118798      4196960 
20592.666909986      4040200 
20798.593579086      3889070 
21006.579514877      3741200 
21216.645310025      3607090 
21428.811763126      3471160 
21643.099880757 3270053.3333333 
21859.530879564      3172460 
22078.12618836      3060460 
22298.907450244      2953330 
22521.896524746      2850835 
22747.115489993 2732086.6666667 
22974.586644893      2617410 
23204.332511342      2529510 
23436.375836456 2424596.6666667 
23670.73959482      2324740 
23907.446990769      2248615 
24146.521460676 2157766.6666667 
24387.986675283      2071555 
24631.866542036      1988860 
24878.185207456      1911520 
25126.967059531 1836783.3333333 
25378.236730126      1766320 
25632.019097427 1697826.6666667 
25888.339288402      1633005 
26147.222681286      1544020 
26408.694908098 1503046.6666667 
26672.781857179      1442710 
26939.509675751 1396786.6666667 
27208.904772509      1336050 
27480.993820234 1272793.3333333 
27755.803758436      1234715 
28033.361796021 1191666.6666667 
28313.695413981 1142093.3333333 
28596.832368121 1086116.6666667 
28882.800691802      1051170 
29171.62869872 1008972.3333333 
29463.344985707       968886 
29757.978435564 930755.66666667 
30055.55821992 888241.33333333 
30356.113802119 855856.66666667 
30659.67494014 827043.33333333 
30966.271689541       795723 
31275.934406437       765861 
31588.693750501 737391.66666667 
31904.580688006     711106.2 
32223.626494886       680109 
32545.862759835       655346 
32871.321387434       623988 
33200.034601308     602824.5 
33532.034947321       581636 
33867.355296794       561480 
34206.028849762     535841.5 
34548.08913826       517529 
34893.570029642       500066 
35242.505729939       477869 
35594.930787238       456888 
35950.880095111       437042 
36310.388896062       422836 
36673.492785022       409232 
37040.227712872     389247.5 
37410.629990001     372159.5 
37784.736289901       359959 
38162.5836528       345192 
38544.209489328     331177.5 
38929.651584221     317736.5 
39318.948100064       305210 
39712.137581064     292968.5 
40109.258956875       277688 
40510.351546444       270738 
40915.455061908     260413.5 
41324.609612527     249913.5 
41737.855708653     241093.5 
42155.234265739       232165 
42576.786608396     223537.5 
43002.55447448     215449.5 
43432.580019225       206831 
43866.905819417 198163.66666667 
44305.574877612       189665 
44748.630626388       183040 
45196.116932652     176664.5 
45648.078101978       169084 
46104.558882998       159215 
46565.604471828     154778.5 
47031.260516546       149909 
47501.573121712       143712 
47976.588852929     138989.5 
48456.354741458       133365 
48940.918288873     128003.5 
49430.327471761 122925.33333333 
49924.630746479     118078.5 
50423.877053944 113483.33333333 
50928.115824483     107842.5 
51437.396982728 104835.66666667 
51951.770952555     100949.5 
52471.288662081 97167.233333333 
52996.001548702      92851.7 
53525.961564189      89430.8 
54061.221179831 86176.533333333 
54601.833391629      82457.6 
55147.851725545     79505.75 
55699.330242801      76694.3 
56256.323545229 73475.933333333 
56818.886780681 70414.466666667 
57387.075648488 67529.466666667 
57960.946404973 64787.166666667 
58540.555869022 61528.433333333 
59125.961427713      59518.1 
59717.22104199      57348.5 
60314.39325241 55105.466666667 
60917.537184934      52970.1 
61526.712556783 50936.633333333 
62141.979682351      48980.1 
62763.399479174 47028.433333333 
63391.033473966      45394.6 
64024.943808706 43367.828571429 
64665.193246793      41851.3 
65311.845179261      40337.8 
65964.963631053     38418.85 
66624.613267364      37051.1 
67290.859400038     35600.35 
67963.767994038     34097.35 
68643.405673978      32918.1 
69329.839730718      31794.6 
70023.138128025      30366.7 
70723.369509305      29017.5 
71430.603204399      28052.1 
72144.909236443      27130.6 
72866.358328807      25957.2 
73595.021912095      24824.9 
74330.972131216      23157.5 
75074.281852528      22755.2 
75825.024671053      22082.4 
76583.274917764        21398 
77349.107666942      20523.9 
78122.598743611      19694.4 
78903.824731047      18905.7 
79692.862978358     18156.25 
80489.791608141      17443.6 
81294.689524223     16761.75 
82107.636419465      16119.6 
82928.712783659        15505 
83757.999911496     14918.95 
84595.579910611 14226.166666667 
85441.535709717      13570.4 
86295.951066814      13051.8 
87158.910577482     12474.35 
88030.499683257      12146.6 
88910.80468009      11714.1 
89799.912726891      11200.5 
90697.91185416     10713.05 
91604.890972701      10342.8 
92520.939882428 9902.5333333333 
93446.149281253      9451.75 
94380.610774065      9165.72 
95324.416881806 8787.1966666667 
96277.661050624      8426.42 
97240.43766113      8085.21 
98212.842037741     7759.675 
99194.970458119      7511.72 
100186.9201627      7331.57 
199060.83304441      450.174 
399467.9878358      27.2447 
594753.39981818       5.2735 
793700.71765891      1.64384 
997811.18987739     0.665533 
1193529.3359837     0.317891 
1399507.0114645     0.170205 
