#  WAVELENGTH	        FLUX	
#  (ANGSTROM)	(ERG/CM2/S/A)	
############	############	
        90.9  1.02945E-17 
    92.72709  5.91754E-17 
95.53681355409  3.11574E-16 
97.457103506527  8.31702E-16 
99.415991287008  2.57008E-15 
101.41425271188   1.0112E-14 
103.45267919139  2.72225E-14 
105.53207804313  7.10565E-14 
107.6532728118  2.09592E-13 
109.81710359532  7.96633E-13 
113.14467165136    4.312E-12 
117.73879903054  2.31536E-11 
120.10534889105  9.97559E-11 
123.7446610678  3.97651E-10 
126.23192875526  9.48588E-10 
127.49424804281   1.53022E-9 
130.05688242847   3.24828E-9 
131.35745125276   6.29792E-9 
132.67102576529   1.04844E-8 
135.33771338317   2.55601E-8 
139.43858143639   7.04227E-8 
142.24129692326    2.0285E-7 
146.55135046134   6.22267E-7 
150.99200293167   1.75651E-6 
154.02694219059   5.22059E-6 
158.69411256591    1.2702E-5 
161.88386422848   2.71236E-5 
165.13772989948   6.72677E-5 
170.14156825316  0.000170023 
171.84298393569  0.000323485 
175.2970279128  0.000638225 
178.82049817385   0.00122641 
180.60870315558   0.00162606 
186.0813274699   0.00361259 
189.82156215205   0.00842983 
193.6369755513    0.0136424 
197.52907875988     0.028051 
201.49941324296    0.0473216 
203.51440737539    0.0762165 
209.68109743327     0.167508 
216.03464436659      0.36268 
218.19499081026     0.580848 
222.58071012555     0.870519 
224.8065172268      1.39953 
229.32512822306        492.4 
233.93456330034      1087.82 
238.63664802268      1806.02 
245.86757709442      3164.28 
250.80951539401      5250.21 
255.85078665343         7146 
258.40929451997      11858.7 
263.60332133982      18053.8 
266.23935455322        26618 
271.59076557974      37285.5 
277.04973996789      48974.4 
282.61843974125       100371 
288.29907038004       146042 
294.09388169468       198186 
300.00516871675       277434 
306.03527260795       579844 
315.30844740325      1211100 
324.86260866801      1796980 
334.70627057326      3096410 
344.8482052779      4782530 
355.29745074603      9993400 
362.43892950602     18170300 
373.42119150899     22458400 
384.7362270329     32255600 
392.46942519626     51751100 
404.36164124913     64484500 
412.48931023824     83700300 
420.78034537403     95587300 
429.23803031605    113909000 
437.8657147254    143210000 
446.66681559138    166346000 
455.64481858477    184395000 
469.4513122327    222491000 
478.88728360858    263646000 
488.51291800911    300554000 
498.3320276611    358045000 
503.31534793771    784563000 
508.34850141708   5184250000 
518.56630629557   4891920000 
528.98948905211   4521290000 
539.62217778206   4170770000 
545.01839955988   5090420000 
555.97326939103   6105900000 
567.14833210579   6375780000 
578.54801358112   5827910000 
584.33349371693   6302030000 
596.07859694064   5454840000 
608.05977673914   6411900000 
614.14037450653   7321530000 
626.48459603412   7141090000 
639.0769364144   6939900000 
645.46770577855   7020390000 
651.92238283633   6385820000 
658.44160666469   7178950000 
671.67628295866   7639850000 
678.39304578824   6467750000 
692.02874600859   8261890000 
698.94903346867   7111200000 
712.99790904139   8785240000 
720.12788813181   8588480000 
734.60245868325   8615860000 
741.94848327009   8644040000 
749.36796810279   8640620000 
764.43026426165   8849420000 
772.07456690427   9080410000 
779.79531257331   9416030000 
787.59326569905   9394630000 
803.4238903396   9142920000 
811.45812924299   9103680000 
819.57271053542   9561820000 
827.76843764078   8116280000 
844.40658323736   9236970000 
852.85064906973   9187050000 
861.37915556043   9466790000 
869.99294711603   9582300000 
878.69287658719   9803240000 
887.47980535306   9909430000 
896.3546034066   9658980000 
914.37133093507  10281000000 
923.51504424442  33130700000 
932.75019468686  55589900000 
942.07769663373  81203600000 
951.49847360007  89797400000 
961.01345833607 104775000000 
970.62359291943  39179600000 
980.32982884862  87039300000 
990.13312713711  78734800000 
1000.0344584085  83337500000 
1010.0348029926  86113600000 
1020.1351510225  60904300000 
1030.3365025327  81041700000 
1040.639867558  95408700000 
1051.0462662336  90176400000 
1061.556728896  77237600000 
1072.1722961849  80964600000 
1082.8940191468  73773200000 
1093.7229593382  79030100000 
1104.6601889316  74556850000 
1115.7067908209  60738300000 
1126.8638587291  70592400000 
1138.1324973164  66663700000 
1149.5138222896  64565400000 
1161.0089605125  62487500000 
1172.6190501176  41399800000 
1184.3452406188  56007650000 
1196.188693025  51420700000 
1208.1505799552  37641600000 
1220.2320857548  50536000000 
1232.4344066123  54253400000 
1244.7587506785  51976050000 
1257.2063381852  52864200000 
1269.7784015671  53838800000 
1282.4761855828  51084200000 
1295.3009474386  48981000000 
1308.253956913  51733100000 
1321.3364964821  49431900000 
1334.5498614469  47734750000 
1347.8953600614  46663900000 
1361.374313662  44668500000 
1374.9880567986  42710350000 
1388.7379373666  33250900000 
1402.6253167403  36696700000 
1416.6515699077  35468400000 
1430.8180856068 37397158823.529 
1445.1262664628 35962315384.615 
1459.5775291275  34137400000 
1474.1733044187  34126850000 
1488.9150374629  32931000000 
1503.8041878376 30904759090.909 
1518.8422297159  29806400000 
1534.0306520131  24493250000 
1549.3709585332  22812300000 
1564.8646681186  25583400000 
1580.5133147997  26105350000 
1596.3184479477  24746100000 
1612.2816324272  23823950000 
1628.4044487515  24312800000 
1644.688493239  24122450000 
1661.1353781714 23682990909.091 
1677.7467319531  24105400000 
1694.5241992726  22966550000 
1711.4694412654  21367800000 
1728.584135678  21455250000 
1745.8699770348  21007400000 
1763.3286768051  20282750000 
1780.9619635732  19933150000 
1798.7715832089  19307850000 
1816.759299041  18753800000 
1834.9268920314  17963500000 
1853.2761609517  17604100000 
1871.8089225613  16817900000 
1890.5270117869  15946850000 
1909.4322819047  15194100000 
1928.5266047238  15666250000 
1947.811870771 14683336363.636 
1967.2899894787 15047852941.176 
1986.9628893735 14378166666.667 
2006.8325182673  14454550000 
2026.9008434499  13655100000 
2047.1698518844  11454600000 
2067.6415504033  11623790000 
2088.3179659073  12278300000 
2109.2011455664  12496500000 
2130.293157022  12093250000 
2151.5960885923  11807550000 
2173.1120494782  11521200000 
2194.843169973 11239233333.333 
2216.7916016727  10826000000 
2238.9595176894  10446400000 
2261.3491128663  10262000000 
2283.962603995 9538436666.6667 
2306.8022300349   9461075000 
2329.8702523353   9221585000 
2353.1689548586 8877463333.3333 
2376.7006444072   8429460000 
2400.4676508513   8314670000 
2424.4723273598   8045310000 
2448.7170506334   7788950000 
2473.2042211397 7040026666.6667 
2497.9362633511 7022323913.0435 
2522.9156259846 7000969259.2593 
2548.1447822445   6773230000 
2573.6262300669 6574606666.6667 
2599.3624923676   6339970000 
2625.3561172913   6137655000 
2651.6096784642   5890550000 
2678.1257752488   5705295000 
2704.9070330013 5510046666.6667 
2731.9561033313 5321473333.3333 
2759.2756643647   5153780000 
2786.8684210083   4936865000 
2814.7371052184 4834593333.3333 
2842.8844762706 4679926666.6667 
2871.3133210333   4509650000 
2900.0264542436   4354370000 
2929.026718786   4216420000 
2958.3169859739   4073910000 
2987.9001558336   3904335000 
3017.779157392   3767820000 
3047.9569489659   3670885000 
3078.4365184556   3513240000 
3109.2208836401   3429565000 
3140.3130924765   3277420000 
3171.7162234013   3163200000 
3203.4333856353   3063265000 
3235.4677194916   2980280000 
3267.8223966866   2874660000 
3300.5006206534   2754510000 
3333.50562686   2661940000 
3366.8406831286   2588280000 
3400.5090899598   2487960000 
3434.5141808594   2401070000 
3468.859322668   2333035000 
3503.5479158947   2246805000 
3538.5833950537   2163215000 
3573.9692290042   2087780000 
3609.7089212942   2024552000 
3645.8060105072 1913583333.3333 
3682.2640706123   1835590000 
3719.0867113184   1751425000 
3756.2775784316   1732250000 
3793.8403542159   1708925000 
3831.778757758   1790350000 
3870.0965453356   1520150000 
3908.797510789   1740285000 
3947.8854858969   1541265000 
3987.3643407558   1620615000 
4027.2379841634   1550730000 
4067.510364005   1453105000 
4108.1854676451   1353045000 
4149.2673223215 1399036666.6667 
4190.7599955447   1347590000 
4232.6675955002   1286935000 
4274.9942714552   1234980000 
4317.7442141697   1092305000 
4360.9216563114   1148310000 
4404.5308728746   1126390000 
4448.5761816033 1074066666.6667 
4493.0619434193   1042385000 
4537.9925628535   1008665000 
4583.3724884821    974543000 
4629.2062133669 923141333.33333 
4675.4982755006    890438000 
4722.2532582556    875839000 
4769.4757908381 845890333.33333 
4817.1705487465    789173500 
4865.342254234 746419666.66667 
4913.9956767763    743713000 
4963.1356335441    721944000 
5012.7669898795    696506000 
5062.8946597783 673762666.66667 
5113.5236063761    647667000 
5164.6588424398    625993000 
5216.3054308642    603756500 
5268.4684851729 582587333.33333 
5321.1531700246 558775333.33333 
5374.3647017249    538052500 
5428.1083487421    521093000 
5482.3894322295    499936000 
5537.2133265518 480025666.66667 
5592.5854598173    464314000 
5648.5113144155 446899666.66667 
5704.9964275597    427176000 
5762.0463918353    411367000 
5819.6668557536 392425333.33333 
5877.8635243112 380609333.33333 
5936.6421595543 367918333.33333 
5996.0085811498    355132000 
6055.9686669613    342389000 
6116.5283536309    329582000 
6177.6936371672 318045666.66667 
6239.4705735389 306559666.66667 
6301.8652792743 295682666.66667 
6364.883932067 285385666.66667 
6428.5327713877    273566500 
6492.8180991016 259717333.33333 
6557.7462800926 242741333.33333 
6623.3237428935 244321666.66667 
6689.5569803225    234824500 
6756.4525501257 226231333.33333 
6824.0170756269    217700500 
6892.2572463832 209425666.66667 
6961.179818847    201635750 
7030.7916170355 193232333.33333 
7101.0995332059    186831750 
7172.1105285379    179665000 
7243.8316338233    173256000 
7316.2699501615 167359666.66667 
7389.4326496631    161420500 
7463.3269761598    154757500 
7537.9602459214    148668250 
7613.3398483806 143578666.66667 
7689.4732468644    138592750 
7766.367979333    133282500 
7844.0316591264    128134000 
7922.4719757176    123309000 
8001.6966954748    118643750 
8081.7136624296    114044000 
8162.5307990539    109548250 
8244.1561070444    105406250 
8326.5976681148    101591500 
8409.863644796     97500300 
8493.9622812439     93558950 
8578.9019040564     89992225 
8664.6909230969     85884660 
8751.3378323279     84530275 
8838.8512106512     79438025 
8927.2397227577     77789860 
9016.5121199853     75149050 
9106.6772411851     73882900 
9197.744013597     67484325 
9289.721453733     68490420 
9382.6186682703     65789860 
9476.444854953     60383440 
9571.2093035025     60695225 
9666.9213965375     58686580 
9763.5906105029     56520600 
9861.226516608     54269820 
9959.838781774 51426406.666667 
10059.437169592     48955550 
10160.031541288     48568900 
10261.631856701     46686050 
10364.248175268     45045000 
10467.89065702     43393150 
10572.56956359 41423633.333333 
10678.295259226     39592050 
10785.078211819     37948350 
10892.928993937     35091300 
11001.858283876     35440850 
11111.876866715     34332500 
11222.995635382 32860766.666667 
11335.225591736     31474900 
11448.577847653     30428500 
11563.06362613     29150600 
11678.694262391     27978150 
11795.481205015     27065200 
11913.436017065 25894933.333333 
12032.570377236     24943350 
12152.896081008     24154300 
12274.425041818     23211000 
12397.169292236     22309250 
12521.140985159 21437233.333333 
12646.35239501     20634800 
12772.81591896 19219033.333333 
12900.54407815     18935900 
13029.549518932     18280550 
13159.845014121     17613500 
13291.443464262     16969100 
13424.357898905 16357633.333333 
13558.601477894     15665500 
13694.187492673     15008400 
13831.129367599     14483400 
13969.440661275 13985933.333333 
14109.135067888 13415866.666667 
14250.226418567 12872533.333333 
14392.728682753 12357133.333333 
14536.65596958 11864716.666667 
14682.022529276 11398066.666667 
14828.842754569 10957633.333333 
14977.131182115     10530300 
15126.902493936 10134533.333333 
15278.171518875      9748470 
15430.953234064      9378400 
15585.262766404 9023463.3333333 
15741.115394068 8684686.6666667 
15898.526548009 8350824.2857143 
16057.511813489      7968420 
16218.086931624      7755635 
16380.26780094      7369710 
16544.07047895      7260870 
16709.511183739      6795830 
16876.606295577      6684050 
17045.372358532      6443125 
17215.826082118      6052105 
17387.984342939      5881295 
17561.864186368      5701690 
17737.482828232      5513095 
17914.857656514      5273755 
18094.006233079      4929575 
18274.94629541      4837185 
18457.695758364      4679250 
18642.272715948      4425025 
18828.695443107      4347350 
19016.982397539      4165600 
19207.152221514      3998975 
19399.223743729      3747585 
19593.215981166      3692965 
19789.148140978      3548225 
19987.039622388      3410545 
20186.910018612      3279445 
20388.779118798      3151420 
20592.666909986      3035445 
20798.593579086      2922040 
21006.579514877      2808875 
21216.645310025      2710635 
21428.811763126      2608210 
21643.099880757      2450000 
21859.530879564      2384575 
22078.12618836      2300335 
22298.907450244      2220135 
22521.896524746      2143245 
22747.115489993      2051820 
22974.586644893      1964830 
23204.332511342      1899045 
23436.375836456 1820506.6666667 
23670.73959482      1745770 
23907.446990769      1688730 
24146.521460676 1620773.3333333 
24387.986675283      1556015 
24631.866542036      1493840 
24878.185207456      1435590 
25126.967059531 1379796.6666667 
25378.236730126      1327620 
25632.019097427      1276610 
25888.339288402      1228370 
26147.222681286 1158483.3333333 
26408.694908098 1131446.6666667 
26672.781857179      1081325 
26939.509675751      1052680 
27208.904772509 1006731.6666667 
27480.993820234       954715 
27755.803758436       930704 
28033.361796021       898272 
28313.695413981       860888 
28596.832368121 814634.66666667 
28882.800691802 792548.33333333 
29171.62869872       760785 
29463.344985707       730597 
29757.978435564 701892.33333333 
30055.55821992 667795.66666667 
30356.113802119       644290 
30659.67494014 623663.33333333 
30966.271689541 600189.66666667 
31275.934406437       577722 
31588.693750501       556291 
31904.580688006     536488.4 
32223.626494886     513151.5 
32545.862759835       494478 
32871.321387434     469272.5 
33200.034601308     454542.5 
33532.034947321       439229 
33867.355296794       424010 
34206.028849762     404670.5 
34548.08913826       390875 
34893.570029642       377706 
35242.505729939       360965 
35594.930787238     345137.5 
35950.880095111       330163 
36310.388896062       319453 
36673.492785022       309053 
37040.227712872       293658 
37410.629990001       280743 
37784.736289901     271813.5 
38162.5836528       260723 
38544.209489328       250238 
38929.651584221     239817.5 
39318.948100064     230723.5 
39712.137581064       221265 
40109.258956875       209579 
40510.351546444       204679 
40915.455061908       196893 
41324.609612527     188472.5 
41737.855708653     182260.5 
42155.234265739       175583 
42576.786608396     169041.5 
43002.55447448     162973.5 
43432.580019225     156025.5 
43866.905819417       149828 
44305.574877612     143517.5 
44748.630626388     138535.5 
45196.116932652       133718 
45648.078101978 127982.66666667 
46104.558882998       120442 
46565.604471828     116764.5 
47031.260516546 113499.33333333 
47501.573121712     108819.5 
47976.588852929       105252 
48456.354741458 101001.73333333 
48940.918288873     96950.15 
49430.327471761 93111.933333333 
49924.630746479        89450 
50423.877053944 85976.266666667 
50928.115824483        81446 
51437.396982728 79426.933333333 
51951.770952555     76502.05 
52471.288662081      73641.6 
52996.001548702 70378.466666667 
53525.961564189     67791.15 
54061.221179831 65331.166666667 
54601.833391629 62517.433333333 
55147.851725545     60250.35 
55699.330242801 58157.633333333 
56256.323545229 55723.633333333 
56818.886780681 53349.566666667 
57387.075648488      51223.8 
57960.946404973 49151.366666667 
58540.555869022 46632.933333333 
59125.961427713 45099.266666667 
59717.22104199      43525.4 
60314.39325241 41827.533333333 
60917.537184934 40210.566666667 
61526.712556783 38670.733333333 
62141.979682351 37175.233333333 
62763.399479174 35635.733333333 
63391.033473966      34473.2 
64024.943808706 32937.542857143 
64665.193246793      31788.8 
65311.845179261      30641.6 
65964.963631053        29187 
66624.613267364      28150.3 
67290.859400038      27001.4 
67963.767994038      25910.5 
68643.405673978      25017.2 
69329.839730718      24164.9 
70023.138128025     23081.75 
70723.369509305      22058.7 
71430.603204399      21326.8 
72144.909236443     20627.35 
72866.358328807      19737.7 
73595.021912095      18877.8 
74330.972131216     17630.65 
75074.281852528     17308.75 
75825.024671053      16797.8 
76583.274917764     16278.75 
77349.107666942     15610.15 
78122.598743611      14985.5 
78903.824731047     14387.25 
79692.862978358     13818.35 
80489.791608141      13277.2 
81294.689524223      12746.5 
82107.636419465      12272.2 
82928.712783659      11805.4 
83757.999911496     11360.05 
84595.579910611 10834.066666667 
85441.535709717      10335.8 
86295.951066814         9930 
87158.910577482      9495.24 
88030.499683257      9254.25 
88910.80468009      8925.17 
89799.912726891 8534.9033333333 
90697.91185416      8164.52 
91604.890972701     7883.165 
92520.939882428      7548.32 
93446.149281253      7193.04 
94380.610774065      6988.16 
95324.416881806      6700.24 
96277.661050624     6425.945 
97240.43766113      6166.39 
98212.842037741     5919.105 
99194.970458119     5730.205 
100186.9201627      5593.53 
199060.83304441      346.131 
399467.9878358       21.084 
594753.39981818      4.09361 
793700.71765891      1.27888 
997811.18987739     0.518608 
1193529.3359837       0.2481 
1399507.0114645     0.133022 
