#  WAVELENGTH	        FLUX	
#  (ANGSTROM)	(ERG/CM2/S/A)	
############	############	
        90.9  4.80145E-15 
    92.72709  2.38348E-14 
95.53681355409  1.09251E-13 
97.457103506527  2.69256E-13 
99.415991287008  7.58424E-13 
101.41425271188  2.66673E-12 
103.45267919139  6.61855E-12 
105.53207804313  1.59613E-11 
107.6532728118  4.30505E-11 
109.81710359532  1.46381E-10 
113.14467165136  6.87136E-10 
117.73879903054   3.19426E-9 
120.10534889105   1.21182E-8 
123.7446610678   4.27402E-8 
126.23192875526    9.4306E-8 
127.49424804281   1.45685E-7 
130.05688242847   2.88749E-7 
131.35745125276   5.26807E-7 
132.67102576529   8.36598E-7 
135.33771338317   1.87655E-6 
139.43858143639   4.69949E-6 
142.24129692326   1.22358E-5 
146.55135046134   3.36412E-5 
150.99200293167   8.58809E-5 
154.02694219059  0.000229085 
158.69411256591  0.000509593 
161.88386422848   0.00100785 
165.13772989948   0.00227944 
170.14156825316   0.00524019 
171.84298393569   0.00933872 
175.2970279128    0.0172069 
178.82049817385    0.0309023 
180.60870315558    0.0399006 
186.0813274699     0.081572 
189.82156215205     0.174305 
193.6369755513      0.26822 
197.52907875988     0.512246 
201.49941324296     0.817825 
203.51440737539      1.25332 
209.68109743327      2.53805 
216.03464436659       5.0569 
218.19499081026      7.73821 
222.58071012555      11.1256 
224.8065172268      16.9622 
229.32512822306      9937.43 
233.93456330034      22928.2 
238.63664802268      34485.7 
245.86757709442      54918.4 
250.80951539401      86303.1 
255.85078665343       113974 
258.40929451997       194518 
263.60332133982       336148 
266.23935455322       491489 
271.59076557974       643040 
277.04973996789       758151 
282.61843974125      1458750 
288.29907038004      2012480 
294.09388169468      2517910 
300.00516871675      4388900 
306.03527260795      8875780 
315.30844740325     19270500 
324.86260866801     26138300 
334.70627057326     45364900 
344.8482052779     66832400 
355.29745074603    120957000 
362.43892950602    224178000 
373.42119150899    252461000 
384.7362270329    330638000 
392.46942519626    506379000 
404.36164124913    602883000 
412.48931023824    711914000 
420.78034537403    780375000 
429.23803031605    851830000 
437.8657147254   1023470000 
446.66681559138   1119180000 
455.64481858477   1150790000 
469.4513122327   1318950000 
478.88728360858   1515210000 
488.51291800911   1580820000 
498.3320276611   1871750000 
503.31534793771   3117000000 
508.34850141708  16963700000 
518.56630629557  15871700000 
528.98948905211  14209500000 
539.62217778206  12903800000 
545.01839955988  14628300000 
555.97326939103  18386000000 
567.14833210579  19362900000 
578.54801358112  17854400000 
584.33349371693  18643900000 
596.07859694064  15164400000 
608.05977673914  17841300000 
614.14037450653  20966200000 
626.48459603412  20191000000 
639.0769364144  20296200000 
645.46770577855  19961800000 
651.92238283633  17015200000 
658.44160666469  19600500000 
671.67628295866  21436700000 
678.39304578824  17236200000 
692.02874600859  21786000000 
698.94903346867  17900200000 
712.99790904139  22840900000 
720.12788813181  22293200000 
734.60245868325  22345500000 
741.94848327009  21235800000 
749.36796810279  21129700000 
764.43026426165  21146100000 
772.07456690427  21676500000 
779.79531257331  22047800000 
787.59326569905  22119500000 
803.4238903396  21239700000 
811.45812924299  21111300000 
819.57271053542  21957000000 
827.76843764078  18396000000 
844.40658323736  20956300000 
852.85064906973  20688000000 
861.37915556043  21190700000 
869.99294711603  21180500000 
878.69287658719  21319300000 
887.47980535306  21341700000 
896.3546034066  20680900000 
914.37133093507  20505800000 
923.51504424442  50704800000 
932.75019468686  77757200000 
942.07769663373 102866000000 
951.49847360007 112268000000 
961.01345833607 128191000000 
970.62359291943  60970300000 
980.32982884862 107499000000 
990.13312713711  96193200000 
1000.0344584085  99446900000 
1010.0348029926 103132000000 
1020.1351510225  80020000000 
1030.3365025327 100029000000 
1040.639867558 111885000000 
1051.0462662336 106731000000 
1061.556728896  94293400000 
1072.1722961849  96436300000 
1082.8940191468  88308400000 
1093.7229593382  93489400000 
1104.6601889316  88532300000 
1115.7067908209  74764000000 
1126.8638587291  83837000000 
1138.1324973164  80545800000 
1149.5138222896  76624000000 
1161.0089605125  73887400000 
1172.6190501176  52175300000 
1184.3452406188  66345600000 
1196.188693025  62566700000 
1208.1505799552  48349900000 
1220.2320857548  59912900000 
1232.4344066123  63516100000 
1244.7587506785  61102500000 
1257.2063381852  61986900000 
1269.7784015671  63029900000 
1282.4761855828  60692500000 
1295.3009474386  58198700000 
1308.253956913  60421400000 
1321.3364964821  58197500000 
1334.5498614469  56330100000 
1347.8953600614  54602700000 
1361.374313662  52735900000 
1374.9880567986  50468100000 
1388.7379373666  41898700000 
1402.6253167403  44491900000 
1416.6515699077  42253000000 
1430.8180856068 44362241176.471 
1445.1262664628  42514600000 
1459.5775291275  40879700000 
1474.1733044187  40702350000 
1488.9150374629  39305800000 
1503.8041878376 37943763636.364 
1518.8422297159  36381600000 
1534.0306520131  29947100000 
1549.3709585332  27770000000 
1564.8646681186  31074700000 
1580.5133147997  31567700000 
1596.3184479477  29599900000 
1612.2816324272  28567900000 
1628.4044487515  28845000000 
1644.688493239  28598250000 
1661.1353781714 27990427272.727 
1677.7467319531  28539800000 
1694.5241992726  27379850000 
1711.4694412654  25567200000 
1728.584135678  25669250000 
1745.8699770348  24993600000 
1763.3286768051  24241300000 
1780.9619635732  23741550000 
1798.7715832089  22996850000 
1816.759299041  22278300000 
1834.9268920314  21691700000 
1853.2761609517  21212700000 
1871.8089225613  20232450000 
1890.5270117869  19589000000 
1909.4322819047  18643050000 
1928.5266047238  18948750000 
1947.811870771 17817009090.909 
1967.2899894787 18013994117.647 
1986.9628893735 17306542857.143 
2006.8325182673  17230250000 
2026.9008434499  16441300000 
2047.1698518844  12993100000 
2067.6415504033  13273545000 
2088.3179659073  14658350000 
2109.2011455664  14816200000 
2130.293157022  14394000000 
2151.5960885923  13940550000 
2173.1120494782  13641700000 
2194.843169973 13285733333.333 
2216.7916016727  12868000000 
2238.9595176894  12333850000 
2261.3491128663  12157450000 
2283.962603995 11300266666.667 
2306.8022300349  11216850000 
2329.8702523353  10927350000 
2353.1689548586 10471233333.333 
2376.7006444072   9882555000 
2400.4676508513   9810090000 
2424.4723273598 9509326666.6667 
2448.7170506334   9184695000 
2473.2042211397   8322860000 
2497.9362633511 8274088695.6522 
2522.9156259846 8272635925.9259 
2548.1447822445   8005435000 
2573.6262300669 7750036666.6667 
2599.3624923676   7467770000 
2625.3561172913   7234980000 
2651.6096784642   6951360000 
2678.1257752488   6739230000 
2704.9070330013 6523303333.3333 
2731.9561033313 6271336666.6667 
2759.2756643647 6076843333.3333 
2786.8684210083   5829915000 
2814.7371052184 5704743333.3333 
2842.8844762706 5513303333.3333 
2871.3133210333 5311363333.3333 
2900.0264542436   5132150000 
2929.026718786   4967365000 
2958.3169859739   4791940000 
2987.9001558336   4594995000 
3017.779157392   4422240000 
3047.9569489659   4306205000 
3078.4365184556   4141690000 
3109.2208836401   4027310000 
3140.3130924765   3849575000 
3171.7162234013   3718780000 
3203.4333856353   3589880000 
3235.4677194916   3497800000 
3267.8223966866   3369775000 
3300.5006206534   3230055000 
3333.50562686   3115140000 
3366.8406831286   3032250000 
3400.5090899598   2914025000 
3434.5141808594   2811270000 
3468.859322668   2735075000 
3503.5479158947   2630625000 
3538.5833950537   2529635000 
3573.9692290042   2445630000 
3609.7089212942   2364282000 
3645.8060105072   2185940000 
3682.2640706123   2101285000 
3719.0867113184   2026985000 
3756.2775784316   2007740000 
3793.8403542159   1978235000 
3831.778757758   2043515000 
3870.0965453356   1770410000 
3908.797510789   1975770000 
3947.8854858969   1769980000 
3987.3643407558   1838820000 
4027.2379841634   1760520000 
4067.510364005   1660385000 
4108.1854676451   1550730000 
4149.2673223215   1583480000 
4190.7599955447   1520355000 
4232.6675955002   1460710000 
4274.9942714552   1404560000 
4317.7442141697   1257895000 
4360.9216563114   1305780000 
4404.5308728746   1275085000 
4448.5761816033   1217670000 
4493.0619434193   1175060000 
4537.9925628535   1136155000 
4583.3724884821   1101680000 
4629.2062133669 1042276666.6667 
4675.4982755006   1004177000 
4722.2532582556    991395500 
4769.4757908381    955215000 
4817.1705487465    896561000 
4865.342254234 848210666.66667 
4913.9956767763    841661500 
4963.1356335441 815806333.33333 
5012.7669898795    786450000 
5062.8946597783    760388000 
5113.5236063761    731901500 
5164.6588424398    706350000 
5216.3054308642    680930500 
5268.4684851729    657154000 
5321.1531700246    630241000 
5374.3647017249    605453500 
5428.1083487421    587617000 
5482.3894322295 563686666.66667 
5537.2133265518 540895333.33333 
5592.5854598173    523292000 
5648.5113144155 503689333.33333 
5704.9964275597    475485000 
5762.0463918353 457609333.33333 
5819.6668557536    437871000 
5877.8635243112    425968000 
5936.6421595543    413049000 
5996.0085811498    399829000 
6055.9686669613    385643000 
6116.5283536309    371281000 
6177.6936371672    358119000 
6239.4705735389    345189000 
6301.8652792743 332812333.33333 
6364.883932067 321131666.66667 
6428.5327713877    307934250 
6492.8180991016 292698666.66667 
6557.7462800926 274674333.33333 
6623.3237428935    274935000 
6689.5569803225    263993250 
6756.4525501257 254572666.66667 
6824.0170756269    244679750 
6892.2572463832 235491333.33333 
6961.179818847    226596500 
7030.7916170355 217260333.33333 
7101.0995332059    209999750 
7172.1105285379    202005000 
7243.8316338233    194710000 
7316.2699501615 187993333.33333 
7389.4326496631    181277500 
7463.3269761598    173806500 
7537.9602459214    166791000 
7613.3398483806 161168333.33333 
7689.4732468644    155503750 
7766.367979333    149595250 
7844.0316591264    143800250 
7922.4719757176    138373250 
8001.6966954748    133140000 
8081.7136624296    128010500 
8162.5307990539    122534000 
8244.1561070444    117604500 
8326.5976681148    113306250 
8409.863644796    108833000 
8493.9622812439    104492000 
8578.9019040564    100698300 
8664.6909230969     96292500 
8751.3378323279     94479575 
8838.8512106512     89165925 
8927.2397227577     87040860 
9016.5121199853     84061575 
9106.6772411851     82386860 
9197.744013597     75770450 
9289.721453733     76294420 
9382.6186682703     73324360 
9476.444854953     67676800 
9571.2093035025     67680025 
9666.9213965375     65312680 
9763.5906105029     62953360 
9861.226516608     60466220 
9959.838781774 57420373.333333 
10059.437169592     54617850 
10160.031541288     54074750 
10261.631856701     51979050 
10364.248175268     50132350 
10467.89065702     48298700 
10572.56956359     46105000 
10678.295259226     44058550 
10785.078211819     42260700 
10892.928993937     39271600 
11001.858283876     39464250 
11111.876866715     38194750 
11222.995635382     36559400 
11335.225591736     35014450 
11448.577847653     33844200 
11563.06362613     32397700 
11678.694262391     31113500 
11795.481205015     30092950 
11913.436017065     28799000 
12032.570377236     27728750 
12152.896081008     26852000 
12274.425041818     25801700 
12397.169292236     24798850 
12521.140985159 23830133.333333 
12646.35239501     22934800 
12772.81591896 21441333.333333 
12900.54407815 21051366.666667 
13029.549518932     20310850 
13159.845014121     19568500 
13291.443464262     18854050 
13424.357898905 18173533.333333 
13558.601477894     17403100 
13694.187492673 16670533.333333 
13831.129367599     16087550 
13969.440661275 15533233.333333 
14109.135067888     14898100 
14250.226418567 14293766.666667 
14392.728682753 13720366.666667 
14536.65596958 13173106.666667 
14682.022529276     12649400 
14828.842754569 12163966.666667 
14977.131182115 11689833.333333 
15126.902493936 11248433.333333 
15278.171518875 10819733.333333 
15430.953234064 10409466.666667 
15585.262766404 10016153.333333 
15741.115394068 9640566.6666667 
15898.526548009      9265390 
16057.511813489      8853260 
16218.086931624      8605470 
16380.26780094      8192640 
16544.07047895      8044785 
16709.511183739      7550560 
16876.606295577      7406040 
17045.372358532      7139585 
17215.826082118      6722140 
17387.984342939      6516395 
17561.864186368      6314230 
17737.482828232      6105860 
17914.857656514      5840735 
18094.006233079      5477060 
18274.94629541      5355955 
18457.695758364      5182450 
18642.272715948      4909180 
18828.695443107      4813675 
19016.982397539      4612680 
19207.152221514      4428070 
19399.223743729      4161895 
19593.215981166      4087475 
19789.148140978      3927070 
19987.039622388      3774595 
20186.910018612      3629315 
20388.779118798      3488175 
20592.666909986      3359145 
20798.593579086      3233530 
21006.579514877      3109070 
21216.645310025      2999325 
21428.811763126      2886905 
21643.099880757 2716896.6666667 
21859.530879564      2638255 
22078.12618836      2545065 
22298.907450244      2456235 
22521.896524746      2371055 
22747.115489993 2269866.6666667 
22974.586644893      2173605 
23204.332511342      2100715 
23436.375836456      2013780 
23670.73959482      1930995 
23907.446990769      1867875 
24146.521460676 1792603.3333333 
24387.986675283      1720955 
24631.866542036      1652260 
24878.185207456      1588215 
25126.967059531      1526720 
25378.236730126      1469655 
25632.019097427 1412146.6666667 
25888.339288402      1358780 
26147.222681286 1284186.6666667 
26408.694908098      1251330 
26672.781857179      1197275 
26939.509675751      1163400 
27208.904772509 1112806.6666667 
27480.993820234 1056986.6666667 
27755.803758436      1028540 
28033.361796021 992695.33333333 
28313.695413981 951498.33333333 
28596.832368121 902134.66666667 
28882.800691802 875794.66666667 
29171.62869872       840677 
29463.344985707 807292.33333333 
29757.978435564       775562 
30055.55821992 738925.33333333 
30356.113802119 712673.33333333 
30659.67494014       689139 
30966.271689541       663141 
31275.934406437       638298 
31588.693750501 614606.66666667 
31904.580688006     592713.8 
32223.626494886       566912 
32545.862759835       546375 
32871.321387434       519491 
33200.034601308     502585.5 
33532.034947321       485073 
33867.355296794       468270 
34206.028849762       446935 
34548.08913826       431674 
34893.570029642     417134.5 
35242.505729939     398635.5 
35594.930787238     381148.5 
35950.880095111       364606 
36310.388896062       352766 
36673.492785022     341448.5 
37040.227712872       324708 
37410.629990001     310390.5 
37784.736289901     300225.5 
38162.5836528     287933.5 
38544.209489328       276335 
38929.651584221       264899 
39318.948100064       254747 
39712.137581064       244393 
40109.258956875     231754.5 
40510.351546444     226021.5 
40915.455061908       217391 
41324.609612527     208272.5 
41737.855708653     201260.5 
42155.234265739     193850.5 
42576.786608396       186634 
43002.55447448     179918.5 
43432.580019225       172433 
43866.905819417       165458 
44305.574877612     158422.5 
44748.630626388     152912.5 
45196.116932652       147594 
45648.078101978       141266 
46104.558882998     133152.5 
46565.604471828     129123.5 
47031.260516546 125272.33333333 
47501.573121712       120101 
47976.588852929     116162.5 
48456.354741458       111469 
48940.918288873       106996 
49430.327471761 102758.66666667 
49924.630746479     98714.15 
50423.877053944 94879.433333333 
50928.115824483     90041.65 
51437.396982728 87672.933333333 
51951.770952555        84419 
52471.288662081 81261.433333333 
52996.001548702      77659.3 
53525.961564189     74802.85 
54061.221179831      72086.8 
54601.833391629      68981.7 
55147.851725545      66495.9 
55699.330242801 64169.166666667 
56256.323545229      61481.8 
56818.886780681 58879.933333333 
57387.075648488 56514.566666667 
57960.946404973 54225.466666667 
58540.555869022 51498.066666667 
59125.961427713 49785.266666667 
59717.22104199 48012.566666667 
60314.39325241 46137.466666667 
60917.537184934      44352.7 
61526.712556783      42653.1 
62141.979682351      41011.6 
62763.399479174 39329.766666667 
63391.033473966 38019.566666667 
64024.943808706 36324.814285714 
64665.193246793      35056.8 
65311.845179261     33791.25 
65964.963631053     32186.75 
66624.613267364      31042.3 
67290.859400038     29795.85 
67963.767994038      28572.4 
68643.405673978      27585.7 
69329.839730718      26645.9 
70023.138128025     25450.85 
70723.369509305      24322.1 
71430.603204399      23514.8 
72144.909236443     22743.35 
72866.358328807      21761.3 
73595.021912095     20815.25 
74330.972131216      19458.5 
75074.281852528      19088.6 
75825.024671053      18518.5 
76583.274917764      17945.9 
77349.107666942        17209 
78122.598743611     16519.35 
78903.824731047     15859.05 
79692.862978358     15231.45 
80489.791608141     14634.75 
81294.689524223     14052.05 
82107.636419465      13526.2 
82928.712783659     13010.95 
83757.999911496     12520.25 
84595.579910611      11939.8 
85441.535709717     11390.45 
86295.951066814      10947.1 
87158.910577482     10471.75 
88030.499683257     10197.75 
88910.80468009     9834.975 
89799.912726891 9404.7166666667 
90697.91185416      8996.16 
91604.890972701      8685.69 
92520.939882428       8316.9 
93446.149281253      7928.73 
94380.610774065     7699.345 
95324.416881806      7381.71 
96277.661050624     7079.315 
97240.43766113 6792.9466666667 
98212.842037741     6520.215 
99194.970458119      6312.03 
100186.9201627      6161.24 
199060.83304441      380.065 
399467.9878358      23.0665 
594753.39981818      4.47188 
793700.71765891      1.39608 
997811.18987739     0.565963 
1193529.3359837     0.270696 
1399507.0114645      0.14512 
