#  WAVELENGTH	        FLUX	
#  (ANGSTROM)	(ERG/CM2/S/A)	
############	############	
852.85064906973  2.30586E-25 
861.37915556043  5.16339E-25 
869.99294711603  1.13256E-24 
878.69287658719  2.44328E-24 
887.47980535306  5.17154E-24 
896.3546034066  1.07418E-23 
914.37133093507  1.36442E-17 
923.51504424442  4.35395E-17 
932.75019468686  6.20283E-17 
942.07769663373  1.23689E-16 
951.49847360007  2.19675E-16 
961.01345833607  3.80389E-16 
970.62359291943  4.09693E-16 
980.32982884862  1.09867E-15 
990.13312713711  1.78524E-15 
1000.0344584085  2.50501E-15 
1010.0348029926  3.03219E-15 
1020.1351510225  5.71177E-15 
1030.3365025327  1.63645E-14 
1040.639867558  2.52762E-14 
1051.0462662336  3.17498E-14 
1061.556728896  7.74169E-14 
1072.1722961849  1.15661E-13 
1082.8940191468  1.89603E-13 
1093.7229593382   2.5384E-13 
1104.6601889316  4.47523E-13 
1115.7067908209  1.17836E-12 
1126.8638587291  2.16465E-12 
1138.1324973164  3.38418E-12 
1149.5138222896  4.81832E-12 
1161.0089605125  6.42668E-12 
1172.6190501176  9.26527E-12 
1184.3452406188 8.651645E-12 
1196.188693025  1.90155E-12 
1208.1505799552  6.58206E-13 
1220.2320857548  3.18907E-12 
1232.4344066123  1.92321E-11 
1244.7587506785 8.476235E-11 
1257.2063381852  1.38149E-10 
1269.7784015671  2.32208E-10 
1282.4761855828 2.662225E-10 
1295.3009474386  3.48365E-10 
1308.253956913  5.32213E-10 
1321.3364964821  5.92489E-10 
1334.5498614469 8.182565E-10 
1347.8953600614   1.24966E-9 
1361.374313662   1.41027E-9 
1374.9880567986  1.691555E-9 
1388.7379373666   2.27352E-9 
1402.6253167403   3.82718E-9 
1416.6515699077   4.74497E-9 
1430.8180856068 8.7914705882353E-9 
1445.1262664628 1.0261657692308E-8 
1459.5775291275   1.79727E-8 
1474.1733044187   2.04698E-8 
1488.9150374629   3.91508E-8 
1503.8041878376 5.1276222727273E-8 
1518.8422297159   8.40345E-8 
1534.0306520131  1.115715E-7 
1549.3709585332   1.45172E-7 
1564.8646681186   2.25057E-7 
1580.5133147997  3.204585E-7 
1596.3184479477   3.53443E-7 
1612.2816324272  4.105165E-7 
1628.4044487515   5.92093E-7 
1644.688493239    8.2713E-7 
1661.1353781714 1.3402159090909E-6 
1677.7467319531    2.2679E-6 
1694.5241992726   3.62092E-6 
1711.4694412654  5.300615E-6 
1728.584135678   8.79737E-6 
1745.8699770348   1.04842E-5 
1763.3286768051   1.38092E-5 
1780.9619635732  2.403185E-5 
1798.7715832089  3.547985E-5 
1816.759299041   5.01841E-5 
1834.9268920314  5.974145E-5 
1853.2761609517   7.93217E-5 
1871.8089225613 0.00011197515 
1890.5270117869   0.00016852 
1909.4322819047  0.000240954 
1928.5266047238   0.00025529 
1947.811870771 0.00052777045454545 
1967.2899894787 0.00076461241176471 
1986.9628893735 0.00089185823809524 
2006.8325182673   0.00114395 
2026.9008434499  0.001470485 
2047.1698518844   0.00183768 
2067.6415504033 0.0023168305 
2088.3179659073   0.00550614 
2109.2011455664  0.006834955 
2130.293157022  0.008627865 
2151.5960885923   0.01007162 
2173.1120494782    0.0107087 
2194.843169973 0.019212133333333 
2216.7916016727     0.024618 
2238.9595176894    0.0446692 
2261.3491128663    0.0424586 
2283.962603995 0.058981666666667 
2306.8022300349   0.12207305 
2329.8702523353     0.141901 
2353.1689548586 0.10531286666667 
2376.7006444072     0.226756 
2400.4676508513    0.3581035 
2424.4723273598 0.59256866666667 
2448.7170506334     0.813344 
2473.2042211397 0.66487233333333 
2497.9362633511 0.84373373913043 
2522.9156259846 2.6343992592593 
2548.1447822445     2.696215 
2573.6262300669 2.7500033333333 
2599.3624923676 4.8755366666667 
2625.3561172913      9.10223 
2651.6096784642 9.6904966666667 
2678.1257752488    10.307415 
2704.9070330013      14.6021 
2731.9561033313 17.209066666667 
2759.2756643647 30.786366666667 
2786.8684210083      34.0605 
2814.7371052184 38.512533333333 
2842.8844762706 25.171233333333 
2871.3133210333 75.824133333333 
2900.0264542436       111.02 
2929.026718786     124.9795 
2958.3169859739      131.975 
2987.9001558336     165.3935 
3017.779157392      210.115 
3047.9569489659     284.5975 
3078.4365184556      348.587 
3109.2208836401      479.906 
3140.3130924765      808.567 
3171.7162234013      821.386 
3203.4333856353      1050.67 
3235.4677194916      1395.96 
3267.8223966866      2153.93 
3300.5006206534      2505.44 
3333.50562686      2843.55 
3366.8406831286      2660.13 
3400.5090899598     3750.795 
3434.5141808594      3688.98 
3468.859322668      4668.32 
3503.5479158947     6428.615 
3538.5833950537      7045.69 
3573.9692290042      3861.39 
3609.7089212942       8797.1 
3645.8060105072 15660.866666667 
3682.2640706123     14428.35 
3719.0867113184     6946.345 
3756.2775784316      18093.1 
3793.8403542159     12342.77 
3831.778757758     13298.85 
3870.0965453356      15793.1 
3908.797510789      11984.8 
3947.8854858969     9136.755 
3987.3643407558     38922.75 
4027.2379841634      42966.1 
4067.510364005     51695.15 
4108.1854676451     44125.25 
4149.2673223215      46670.6 
4190.7599955447      30087.7 
4232.6675955002     48532.05 
4274.9942714552     53199.35 
4317.7442141697     82877.45 
4360.9216563114      81921.1 
4404.5308728746     75994.85 
4448.5761816033      85499.8 
4493.0619434193     95140.75 
4537.9925628535     105281.1 
4583.3724884821     95807.25 
4629.2062133669 93998.033333333 
4675.4982755006     102737.7 
4722.2532582556     112942.5 
4769.4757908381 74750.533333333 
4817.1705487465     93044.35 
4865.342254234 127023.66666667 
4913.9956767763       156064 
4963.1356335441      75708.4 
5012.7669898795      93266.8 
5062.8946597783       122965 
5113.5236063761     139477.5 
5164.6588424398      93313.6 
5216.3054308642       153474 
5268.4684851729       184676 
5321.1531700246 200207.33333333 
5374.3647017249       211077 
5428.1083487421 175373.33333333 
5482.3894322295 159995.66666667 
5537.2133265518       201588 
5592.5854598173       132228 
5648.5113144155 159503.33333333 
5704.9964275597       206930 
5762.0463918353 217981.33333333 
5819.6668557536 208223.33333333 
5877.8635243112       128210 
5936.6421595543 154737.33333333 
5996.0085811498       207998 
6055.9686669613 268618.33333333 
6116.5283536309       235557 
6177.6936371672 135069.66666667 
6239.4705735389       153522 
6301.8652792743 217874.33333333 
6364.883932067       245830 
6428.5327713877    253028.75 
6492.8180991016 287227.66666667 
6557.7462800926 284387.66666667 
6623.3237428935       238502 
6689.5569803225    166819.75 
6756.4525501257 179517.66666667 
6824.0170756269       225363 
6892.2572463832 302474.66666667 
6961.179818847    395855.75 
7030.7916170355 282299.33333333 
7101.0995332059    175690.25 
7172.1105285379 221556.66666667 
7243.8316338233    340605.25 
7316.2699501615 459015.33333333 
7389.4326496631       535005 
7463.3269761598       576756 
7537.9602459214    550796.75 
7613.3398483806       428588 
7689.4732468644       371661 
7766.367979333     391308.5 
7844.0316591264    437484.75 
7922.4719757176    487677.75 
8001.6966954748    538691.25 
8081.7136624296    571007.75 
8162.5307990539    554835.75 
8244.1561070444       528810 
8326.5976681148     504055.5 
8409.863644796     477802.2 
8493.9622812439    458886.25 
8578.9019040564     536796.5 
8664.6909230969     554129.4 
8751.3378323279     595009.5 
8838.8512106512    504060.75 
8927.2397227577     498218.6 
9016.5121199853    549530.75 
9106.6772411851       574329 
9197.744013597    565751.25 
9289.721453733     565755.6 
9382.6186682703     565987.2 
9476.444854953       579467 
9571.2093035025    583854.75 
9666.9213965375       567756 
9763.5906105029     559092.6 
9861.226516608     567468.4 
9959.838781774 572107.13333333 
10059.437169592       571971 
10160.031541288     576998.5 
10261.631856701       581461 
10364.248175268     580282.5 
10467.89065702     582577.5 
10572.56956359 575437.66666667 
10678.295259226       569910 
10785.078211819     560310.5 
10892.928993937       548443 
11001.858283876       534596 
11111.876866715     538004.5 
11222.995635382 538856.33333333 
11335.225591736       533692 
11448.577847653     544121.5 
11563.06362613 536488.66666667 
11678.694262391       538448 
11795.481205015     530947.5 
11913.436017065 529490.66666667 
12032.570377236       530441 
12152.896081008     531445.5 
12274.425041818       526090 
12397.169292236       521006 
12521.140985159 517423.66666667 
12646.35239501       513963 
12772.81591896 509105.66666667 
12900.54407815 506695.33333333 
13029.549518932     505105.5 
13159.845014121 502306.33333333 
13291.443464262     497685.5 
13424.357898905 496367.33333333 
13558.601477894 491862.33333333 
13694.187492673 498612.66666667 
13831.129367599       472533 
13969.440661275 474455.66666667 
14109.135067888       464803 
14250.226418567       465220 
14392.728682753 469659.66666667 
14536.65596958 451866.03333333 
14682.022529276 459492.66666667 
14828.842754569       475343 
14977.131182115 468545.33333333 
15126.902493936       481005 
15278.171518875 481846.33333333 
15430.953234064       484100 
15585.262766404 493179.66666667 
15741.115394068 472041.33333333 
15898.526548009 486879.42857143 
16057.511813489       497811 
16218.086931624       489813 
16380.26780094       470908 
16544.07047895       482426 
16709.511183739       469046 
16876.606295577       470536 
17045.372358532       448906 
17215.826082118     430948.5 
17387.984342939       419441 
17561.864186368       407964 
17737.482828232       393765 
17914.857656514       378437 
18094.006233079       363777 
18274.94629541       350462 
18457.695758364       336571 
18642.272715948       329617 
18828.695443107     319358.5 
19016.982397539       314473 
19207.152221514       304404 
19399.223743729     293261.5 
19593.215981166       278735 
19789.148140978       268222 
19987.039622388       264114 
20186.910018612     252502.5 
20388.779118798     247027.5 
20592.666909986     238611.5 
20798.593579086     230149.5 
21006.579514877       226415 
21216.645310025       220485 
21428.811763126       214717 
21643.099880757 207234.66666667 
21859.530879564       199207 
22078.12618836     195370.5 
22298.907450244     189157.5 
22521.896524746       183890 
22747.115489993 168921.33333333 
22974.586644893     158465.5 
23204.332511342     138102.5 
23436.375836456 128303.33333333 
23670.73959482       117284 
23907.446990769       118674 
24146.521460676 108950.66666667 
24387.986675283     101645.5 
24631.866542036 99470.066666667 
24878.185207456     97484.55 
25126.967059531 89670.933333333 
25378.236730126      90048.5 
25632.019097427      87819.7 
25888.339288402     87295.95 
26147.222681286      87114.6 
26408.694908098 83561.266666667 
26672.781857179      83822.6 
26939.509675751 80009.933333333 
27208.904772509      77396.7 
27480.993820234 74458.066666667 
27755.803758436      71140.3 
28033.361796021 67662.966666667 
28313.695413981 67551.233333333 
28596.832368121 65924.166666667 
28882.800691802      64108.3 
29171.62869872      59763.9 
29463.344985707      58889.3 
29757.978435564      56779.4 
30055.55821992 56297.733333333 
30356.113802119 54277.133333333 
30659.67494014 52193.166666667 
30966.271689541 51353.766666667 
31275.934406437 49368.833333333 
31588.693750501 48758.666666667 
31904.580688006      47759.5 
32223.626494886      46161.3 
32545.862759835      45149.6 
32871.321387434     43924.85 
33200.034601308     42323.65 
33532.034947321      41707.1 
33867.355296794      40119.4 
34206.028849762      38984.4 
34548.08913826      38280.2 
34893.570029642     36939.25 
35242.505729939     35612.65 
35594.930787238     34041.45 
35950.880095111     33142.65 
36310.388896062      32083.8 
36673.492785022      31271.2 
37040.227712872      29886.4 
37410.629990001      28885.6 
37784.736289901      27998.4 
38162.5836528     26885.85 
38544.209489328        25957 
38929.651584221     24944.05 
39318.948100064      24147.5 
39712.137581064     22229.15 
40109.258956875     20689.25 
40510.351546444      19356.1 
40915.455061908     18468.95 
41324.609612527      17606.4 
41737.855708653        17028 
42155.234265739     16340.45 
42576.786608396     15581.15 
43002.55447448      14406.1 
43432.580019225     13293.15 
43866.905819417      12265.7 
44305.574877612     11380.25 
44748.630626388      11010.6 
45196.116932652     10523.75 
45648.078101978     10112.84 
46104.558882998      9814.62 
46565.604471828      9651.88 
47031.260516546 9381.4033333333 
47501.573121712     9101.505 
47976.588852929     8891.185 
48456.354741458       8594.4 
48940.918288873     8359.295 
49430.327471761 8095.3666666667 
49924.630746479     7806.745 
50423.877053944 7595.3033333333 
50928.115824483      7346.19 
51437.396982728 7169.1566666667 
51951.770952555     6966.685 
52471.288662081 6813.1333333333 
52996.001548702 6522.0633333333 
53525.961564189       6371.4 
54061.221179831      6181.85 
54601.833391629 5970.5066666667 
55147.851725545      5870.73 
55699.330242801 5728.8033333333 
56256.323545229 5519.0466666667 
56818.886780681 5324.6433333333 
57387.075648488 5206.3066666667 
57960.946404973      5038.47 
58540.555869022 4860.4566666667 
59125.961427713      4734.15 
59717.22104199 4600.5666666667 
60314.39325241 4430.0133333333 
60917.537184934      4305.41 
61526.712556783      4201.68 
62141.979682351 4051.3966666667 
62763.399479174       3926.1 
63391.033473966 3788.5866666667 
64024.943808706 3584.4285714286 
64665.193246793      3425.97 
65311.845179261     3265.115 
65964.963631053     3087.275 
66624.613267364      2986.65 
67290.859400038     2888.815 
67963.767994038      2771.92 
68643.405673978      2678.65 
69329.839730718     2611.305 
70023.138128025      2496.71 
70723.369509305      2395.42 
71430.603204399      2342.64 
72144.909236443      2252.59 
72866.358328807       2169.5 
73595.021912095     2083.415 
74330.972131216     2008.195 
75074.281852528      1873.33 
75825.024671053      1744.99 
76583.274917764      1669.36 
77349.107666942     1557.995 
78122.598743611      1472.28 
78903.824731047     1404.425 
79692.862978358      1344.88 
80489.791608141     1290.945 
81294.689524223     1250.235 
82107.636419465       1211.9 
82928.712783659     1166.625 
83757.999911496     1129.665 
84595.579910611 1087.8466666667 
85441.535709717     1046.875 
86295.951066814      1015.25 
87158.910577482     982.9115 
88030.499683257       950.05 
88910.80468009     926.1145 
89799.912726891 895.07033333333 
90697.91185416      863.155 
91604.890972701     833.9135 
92520.939882428 809.72666666667 
93446.149281253     773.9395 
94380.610774065     754.9075 
95324.416881806      731.144 
96277.661050624     703.5545 
97240.43766113      680.046 
98212.842037741      655.796 
99194.970458119     637.8415 
100186.9201627      624.717 
199060.83304441      43.2298 
399467.9878358      2.80499 
594753.39981818     0.557782 
793700.71765891     0.176557 
997811.18987739    0.0722041 
1193529.3359837    0.0347376 
1399507.0114645    0.0187056 
