#  WAVELENGTH	        FLUX	
#  (ANGSTROM)	(ERG/CM2/S/A)	
############	############	
720.12788813181  3.73694E-25 
734.60245868325  8.88294E-25 
741.94848327009   2.2649E-24 
749.36796810279  5.62633E-24 
764.43026426165  1.36363E-23 
772.07456690427  3.22232E-23 
779.79531257331  7.44747E-23 
787.59326569905  1.67024E-22 
803.4238903396  3.70699E-22 
811.45812924299  8.04592E-22 
819.57271053542  1.70818E-21 
827.76843764078  3.55683E-21 
844.40658323736  7.27054E-21 
852.85064906973  1.45967E-20 
861.37915556043  2.88011E-20 
869.99294711603   5.5804E-20 
878.69287658719  1.06758E-19 
887.47980535306  2.00752E-19 
896.3546034066  3.71863E-19 
914.37133093507  5.40646E-16 
923.51504424442  2.26336E-15 
932.75019468686  4.01137E-15 
942.07769663373  7.73857E-15 
951.49847360007  1.35024E-14 
961.01345833607  2.46268E-14 
970.62359291943  4.09852E-14 
980.32982884862  7.07972E-14 
990.13312713711  1.21399E-13 
1000.0344584085  2.13981E-13 
1010.0348029926  3.57044E-13 
1020.1351510225  5.70748E-13 
1030.3365025327  9.82177E-13 
1040.639867558  1.59489E-12 
1051.0462662336   2.5611E-12 
1061.556728896   4.0957E-12 
1072.1722961849  6.64187E-12 
1082.8940191468  1.04011E-11 
1093.7229593382  1.57473E-11 
1104.6601889316  3.01361E-11 
1115.7067908209  5.80683E-11 
1126.8638587291   8.7665E-11 
1138.1324973164  1.31574E-10 
1149.5138222896  1.98088E-10 
1161.0089605125  2.92147E-10 
1172.6190501176  4.27777E-10 
1184.3452406188 7.551685E-10 
1196.188693025   1.26968E-9 
1208.1505799552   1.01783E-9 
1220.2320857548   2.58078E-9 
1232.4344066123   3.65141E-9 
1244.7587506785  6.021015E-9 
1257.2063381852   9.91414E-9 
1269.7784015671   1.33478E-8 
1282.4761855828  2.102335E-8 
1295.3009474386   3.23746E-8 
1308.253956913   4.59903E-8 
1321.3364964821   5.95151E-8 
1334.5498614469  8.802955E-8 
1347.8953600614   1.41627E-7 
1361.374313662   1.69421E-7 
1374.9880567986   2.40723E-7 
1388.7379373666   3.35492E-7 
1402.6253167403  5.322755E-7 
1416.6515699077   8.06733E-7 
1430.8180856068 1.1329388235294E-6 
1445.1262664628 1.5224246153846E-6 
1459.5775291275   2.17905E-6 
1474.1733044187  2.771965E-6 
1488.9150374629   4.83793E-6 
1503.8041878376 5.9588277272727E-6 
1518.8422297159    9.4363E-6 
1534.0306520131  2.719965E-5 
1549.3709585332   5.66275E-5 
1564.8646681186 0.0002449563 
1580.5133147997  0.000524727 
1596.3184479477   0.00051522 
1612.2816324272 0.0005353635 
1628.4044487515   0.00118937 
1644.688493239  0.001589275 
1661.1353781714 0.0061497681818182 
1677.7467319531    0.0382991 
1694.5241992726     0.209573 
1711.4694412654    0.5822225 
1728.584135678     1.296335 
1745.8699770348      2.23394 
1763.3286768051     2.269255 
1780.9619635732      3.96982 
1798.7715832089      4.95236 
1816.759299041      7.74109 
1834.9268920314     6.221415 
1853.2761609517      9.81446 
1871.8089225613      15.3268 
1890.5270117869      23.6991 
1909.4322819047     27.51415 
1928.5266047238      28.4203 
1947.811870771 58.656190909091 
1967.2899894787 74.459158823529 
1986.9628893735 97.55360952381 
2006.8325182673     95.58175 
2026.9008434499      140.776 
2047.1698518844      151.007 
2067.6415504033    194.56765 
2088.3179659073      295.864 
2109.2011455664     156.7785 
2130.293157022      367.111 
2151.5960885923      552.913 
2173.1120494782      725.099 
2194.843169973      912.186 
2216.7916016727     1394.915 
2238.9595176894      1513.52 
2261.3491128663    1342.5375 
2283.962603995 1998.2333333333 
2306.8022300349      1808.93 
2329.8702523353    1140.1435 
2353.1689548586 1316.8956666667 
2376.7006444072     898.6595 
2400.4676508513     1485.165 
2424.4723273598 5603.1733333333 
2448.7170506334     6285.195 
2473.2042211397     2603.273 
2497.9362633511 2948.3456521739 
2522.9156259846 4762.0185185185 
2548.1447822445    12668.915 
2573.6262300669      8300.03 
2599.3624923676 4983.5466666667 
2625.3561172913     25728.85 
2651.6096784642      44196.8 
2678.1257752488      43769.4 
2704.9070330013 29594.933333333 
2731.9561033313      18121.1 
2759.2756643647 20617.166666667 
2786.8684210083      3356.63 
2814.7371052184      29962.9 
2842.8844762706 22082.843333333 
2871.3133210333 76891.233333333 
2900.0264542436       138834 
2929.026718786       125994 
2958.3169859739       146790 
2987.9001558336       147975 
3017.779157392       178540 
3047.9569489659       195301 
3078.4365184556       250215 
3109.2208836401       283439 
3140.3130924765       306762 
3171.7162234013       283774 
3203.4333856353       273282 
3235.4677194916       350733 
3267.8223966866     484058.5 
3300.5006206534       455842 
3333.50562686       396820 
3366.8406831286     373352.5 
3400.5090899598     518738.5 
3434.5141808594       578776 
3468.859322668       601045 
3503.5479158947     619991.5 
3538.5833950537     523284.5 
3573.9692290042       480702 
3609.7089212942     712948.8 
3645.8060105072 885978.66666667 
3682.2640706123     986061.5 
3719.0867113184       817570 
3756.2775784316       942113 
3793.8403542159     666491.5 
3831.778757758     477482.5 
3870.0965453356       889586 
3908.797510789     481637.5 
3947.8854858969     354377.5 
3987.3643407558      1309460 
4027.2379841634      1754495 
4067.510364005      1861330 
4108.1854676451      2004815 
4149.2673223215 1762216.6666667 
4190.7599955447      2148230 
4232.6675955002      2236810 
4274.9942714552      1793595 
4317.7442141697      2505890 
4360.9216563114      2568790 
4404.5308728746      2726795 
4448.5761816033 3097436.6666667 
4493.0619434193      3503390 
4537.9925628535      3450330 
4583.3724884821      3576915 
4629.2062133669      3625120 
4675.4982755006      3542210 
4722.2532582556      3934745 
4769.4757908381      4133960 
4817.1705487465      4079440 
4865.342254234 3941783.3333333 
4913.9956767763      4152410 
4963.1356335441      3884540 
5012.7669898795      3955565 
5062.8946597783 4006526.6666667 
5113.5236063761      3703995 
5164.6588424398 3792816.6666667 
5216.3054308642      4045160 
5268.4684851729 4033236.6666667 
5321.1531700246 4207926.6666667 
5374.3647017249      4167850 
5428.1083487421 4327046.6666667 
5482.3894322295      4206290 
5537.2133265518 4324626.6666667 
5592.5854598173      4410415 
5648.5113144155      4359850 
5704.9964275597 4468966.6666667 
5762.0463918353 4468823.3333333 
5819.6668557536 4610406.6666667 
5877.8635243112 4423976.6666667 
5936.6421595543 4545643.3333333 
5996.0085811498 4493876.6666667 
6055.9686669613 4415963.3333333 
6116.5283536309 4135106.6666667 
6177.6936371672 4310756.6666667 
6239.4705735389 4185143.3333333 
6301.8652792743      4171280 
6364.883932067 4180076.6666667 
6428.5327713877      4167125 
6492.8180991016      4171630 
6557.7462800926 4037783.3333333 
6623.3237428935      4115890 
6689.5569803225      4116495 
6756.4525501257      4062390 
6824.0170756269      4030665 
6892.2572463832 3947146.6666667 
6961.179818847      3821740 
7030.7916170355 3822033.3333333 
7101.0995332059    3687552.5 
7172.1105285379      3611390 
7243.8316338233    3606577.5 
7316.2699501615      3609390 
7389.4326496631      3521190 
7463.3269761598    3553477.5 
7537.9602459214    3564742.5 
7613.3398483806 3515266.6666667 
7689.4732468644    3466802.5 
7766.367979333      3477510 
7844.0316591264    3309137.5 
7922.4719757176    3184912.5 
8001.6966954748      3187410 
8081.7136624296      3066840 
8162.5307990539    3034827.5 
8244.1561070444      3035920 
8326.5976681148    2949972.5 
8409.863644796      2903426 
8493.9622812439    2448612.5 
8578.9019040564    2837097.5 
8664.6909230969      2659898 
8751.3378323279    2861857.5 
8838.8512106512    2841997.5 
8927.2397227577      2771382 
9016.5121199853    2747847.5 
9106.6772411851      2589374 
9197.744013597      2443585 
9289.721453733      2506140 
9382.6186682703      2381852 
9476.444854953      2408440 
9571.2093035025    2386222.5 
9666.9213965375      2345302 
9763.5906105029      2343252 
9861.226516608      2338206 
9959.838781774 2325844.6666667 
10059.437169592      2277400 
10160.031541288      2236455 
10261.631856701      2218560 
10364.248175268      2180600 
10467.89065702      2134340 
10572.56956359 2088816.6666667 
10678.295259226      2036070 
10785.078211819      1973930 
10892.928993937      1837555 
11001.858283876      1777460 
11111.876866715      1793420 
11222.995635382 1777893.3333333 
11335.225591736      1737690 
11448.577847653      1763440 
11563.06362613      1707470 
11678.694262391      1703155 
11795.481205015      1657795 
11913.436017065 1645073.3333333 
12032.570377236      1606955 
12152.896081008      1605665 
12274.425041818      1573500 
12397.169292236      1546755 
12521.140985159 1513473.3333333 
12646.35239501      1488630 
12772.81591896 1450116.6666667 
12900.54407815      1425460 
13029.549518932      1404645 
13159.845014121      1371180 
13291.443464262      1352485 
13424.357898905 1335926.6666667 
13558.601477894      1291290 
13694.187492673 1268926.6666667 
13831.129367599      1252980 
13969.440661275 1216946.6666667 
14109.135067888      1147630 
14250.226418567 1131546.6666667 
14392.728682753 1100913.3333333 
14536.65596958 1078272.6666667 
14682.022529276      1047920 
14828.842754569      1044900 
14977.131182115 1013893.3333333 
15126.902493936      1005890 
15278.171518875 989767.66666667 
15430.953234064 965808.66666667 
15585.262766404 954092.66666667 
15741.115394068 907581.66666667 
15898.526548009 911286.28571429 
16057.511813489       882337 
16218.086931624     879995.5 
16380.26780094       835621 
16544.07047895     836011.5 
16709.511183739       796469 
16876.606295577       793775 
17045.372358532     760777.5 
17215.826082118       718851 
17387.984342939       701134 
17561.864186368       683485 
17737.482828232       662631 
17914.857656514     640347.5 
18094.006233079       611226 
18274.94629541       591465 
18457.695758364       576051 
18642.272715948       549702 
18828.695443107       530787 
19016.982397539     522743.5 
19207.152221514     501768.5 
19399.223743729       479725 
19593.215981166     464505.5 
19789.148140978       449392 
19987.039622388       438932 
20186.910018612     418123.5 
20388.779118798       408577 
20592.666909986       391914 
20798.593579086       378308 
21006.579514877       367913 
21216.645310025     355601.5 
21428.811763126     345212.5 
21643.099880757 327352.33333333 
21859.530879564     316732.5 
22078.12618836     307222.5 
22298.907450244       297197 
22521.896524746       286141 
22747.115489993 267090.66666667 
22974.586644893       254835 
23204.332511342     231231.5 
23436.375836456       224018 
23670.73959482     211092.5 
23907.446990769       210814 
24146.521460676 197747.33333333 
24387.986675283     188137.5 
24631.866542036 186140.33333333 
24878.185207456       183559 
25126.967059531       174965 
25378.236730126     170360.5 
25632.019097427 165834.66666667 
25888.339288402       162593 
26147.222681286 156668.66666667 
26408.694908098 151555.66666667 
26672.781857179       149256 
26939.509675751       144506 
27208.904772509 140042.33333333 
27480.993820234 134857.66666667 
27755.803758436     131697.5 
28033.361796021 127801.66666667 
28313.695413981 123591.33333333 
28596.832368121 118666.66666667 
28882.800691802       114969 
29171.62869872       110550 
29463.344985707       106927 
29757.978435564 102961.33333333 
30055.55821992 99056.733333333 
30356.113802119 95705.266666667 
30659.67494014 92222.866666667 
30966.271689541 88954.333333333 
31275.934406437      85981.1 
31588.693750501 83008.733333333 
31904.580688006      80373.1 
32223.626494886     76959.55 
32545.862759835      74279.3 
32871.321387434     71369.05 
33200.034601308     68412.05 
33532.034947321      66121.6 
33867.355296794     63777.25 
34206.028849762     61350.45 
34548.08913826      59380.8 
34893.570029642     57564.35 
35242.505729939      55046.7 
35594.930787238     52695.25 
35950.880095111     50733.25 
36310.388896062      48889.3 
36673.492785022      47225.4 
37040.227712872      45176.5 
37410.629990001      43196.8 
37784.736289901     41842.75 
38162.5836528      40460.4 
38544.209489328     38779.95 
38929.651584221     37386.65 
39318.948100064      35872.3 
39712.137581064      34312.9 
40109.258956875     33180.45 
40510.351546444      32043.9 
40915.455061908      30998.4 
41324.609612527     29766.45 
41737.855708653      28683.3 
42155.234265739     27769.55 
42576.786608396      26169.6 
43002.55447448      24279.3 
43432.580019225     22625.25 
43866.905819417 21031.866666667 
44305.574877612      19355.7 
44748.630626388     18886.85 
45196.116932652     17662.15 
45648.078101978 16939.566666667 
46104.558882998     16208.85 
46565.604471828     15868.75 
47031.260516546 15332.366666667 
47501.573121712        14803 
47976.588852929      14452.3 
48456.354741458      13989.4 
48940.918288873        13447 
49430.327471761 13057.033333333 
49924.630746479      12612.2 
50423.877053944        12172 
50928.115824483     11740.25 
51437.396982728 11459.266666667 
51951.770952555      10995.5 
52471.288662081      10778.4 
52996.001548702 10305.966666667 
53525.961564189     10032.37 
54061.221179831 9724.4266666667 
54601.833391629 9350.9133333333 
55147.851725545     9142.305 
55699.330242801 8894.1933333333 
56256.323545229 8561.7533333333 
56818.886780681       8260.3 
57387.075648488      8005.87 
57960.946404973 7722.9233333333 
58540.555869022 7431.6933333333 
59125.961427713 7187.4233333333 
59717.22104199 6966.2866666667 
60314.39325241 6696.2133333333 
60917.537184934 6466.3333333333 
61526.712556783      6285.07 
62141.979682351 6045.1433333333 
62763.399479174      5838.94 
63391.033473966 5653.2166666667 
64024.943808706 5421.9957142857 
64665.193246793       5246.4 
65311.845179261      5076.94 
65964.963631053      4852.32 
66624.613267364      4698.68 
67290.859400038     4535.725 
67963.767994038     4343.795 
68643.405673978      4199.19 
69329.839730718     4064.545 
70023.138128025     3891.005 
70723.369509305     3728.235 
71430.603204399      3607.82 
72144.909236443       3492.9 
72866.358328807      3349.12 
73595.021912095     3209.545 
74330.972131216     3069.845 
75074.281852528      2952.85 
75825.024671053      2863.61 
76583.274917764      2776.25 
77349.107666942      2665.15 
78122.598743611     2559.945 
78903.824731047     2459.415 
79692.862978358      2363.65 
80489.791608141      2273.75 
81294.689524223     2186.895 
82107.636419465      2107.16 
82928.712783659      2027.54 
83757.999911496     1952.975 
84595.579910611 1864.9633333333 
85441.535709717      1780.65 
86295.951066814      1717.07 
87158.910577482      1655.83 
88030.499683257     1597.215 
88910.80468009     1541.985 
89799.912726891 1476.0766666667 
90697.91185416      1412.36 
91604.890972701     1366.735 
92520.939882428 1309.9766666667 
93446.149281253     1255.625 
94380.610774065      1214.54 
95324.416881806 1165.4366666667 
96277.661050624     1118.915 
97240.43766113 1073.6633333333 
98212.842037741      1032.43 
99194.970458119     999.5605 
100186.9201627      976.568 
199060.83304441      62.7972 
399467.9878358      3.90009 
594753.39981818     0.760912 
793700.71765891     0.238058 
997811.18987739    0.0965937 
1193529.3359837    0.0462226 
1399507.0114645    0.0247912 
