#  WAVELENGTH	        FLUX	
#  (ANGSTROM)	(ERG/CM2/S/A)	
############	############	
355.29745074603   5.0316E-24 
362.43892950602  3.20916E-23 
373.42119150899  1.86154E-22 
384.7362270329  1.18584E-21 
392.46942519626  6.83584E-21 
404.36164124913  3.59586E-20 
412.48931023824  1.49023E-19 
420.78034537403  4.99334E-19 
429.23803031605  1.59486E-18 
437.8657147254  7.31742E-18 
446.66681559138   2.7273E-17 
455.64481858477  8.45861E-17 
469.4513122327  2.81806E-16 
478.88728360858  8.89355E-16 
488.51291800911  2.66991E-15 
498.3320276611  7.63739E-15 
503.31534793771  1.85882E-14 
508.34850141708  3.78896E-14 
518.56630629557   8.1486E-14 
528.98948905211  2.06337E-13 
539.62217778206  4.94724E-13 
545.01839955988   1.1622E-12 
555.97326939103  2.62366E-12 
567.14833210579  5.73965E-12 
578.54801358112  1.20444E-11 
584.33349371693  2.51579E-11 
596.07859694064  5.05603E-11 
608.05977673914  9.92145E-11 
614.14037450653  1.89825E-10 
626.48459603412  3.55071E-10 
639.0769364144  6.50007E-10 
645.46770577855   1.16621E-9 
651.92238283633   1.83482E-9 
658.44160666469   2.69574E-9 
671.67628295866   4.61336E-9 
678.39304578824   7.75941E-9 
692.02874600859   1.28261E-8 
698.94903346867    2.0751E-8 
712.99790904139   3.49831E-8 
720.12788813181   5.51369E-8 
734.60245868325   8.20442E-8 
741.94848327009    1.2589E-7 
749.36796810279   1.90842E-7 
764.43026426165   2.85915E-7 
772.07456690427   4.23067E-7 
779.79531257331   6.19788E-7 
787.59326569905   8.87011E-7 
803.4238903396   1.27717E-6 
811.45812924299   1.81904E-6 
819.57271053542   2.55482E-6 
827.76843764078   3.55461E-6 
844.40658323736   4.90101E-6 
852.85064906973   6.69949E-6 
861.37915556043    9.0796E-6 
869.99294711603   1.21582E-5 
878.69287658719    1.6278E-5 
887.47980535306   2.15557E-5 
896.3546034066   2.82433E-5 
914.37133093507    0.0164011 
923.51504424442    0.0530516 
932.75019468686    0.0708104 
942.07769663373    0.0939226 
951.49847360007     0.129365 
961.01345833607     0.169815 
970.62359291943     0.219644 
980.32982884862     0.283942 
990.13312713711     0.362395 
1000.0344584085     0.476271 
1010.0348029926     0.605854 
1020.1351510225     0.748639 
1030.3365025327     0.964136 
1040.639867558      1.20941 
1051.0462662336      1.51014 
1061.556728896      1.86883 
1072.1722961849      2.32077 
1082.8940191468      2.86545 
1093.7229593382       3.5008 
1104.6601889316     17.14326 
1115.7067908209      37.8359 
1126.8638587291      53.8793 
1138.1324973164      68.8446 
1149.5138222896      76.7765 
1161.0089605125      105.251 
1172.6190501176      127.103 
1184.3452406188    111.45855 
1196.188693025      94.2512 
1208.1505799552       31.596 
1220.2320857548      112.103 
1232.4344066123      231.224 
1244.7587506785     799.9315 
1257.2063381852      1069.83 
1269.7784015671      1599.09 
1282.4761855828      2438.15 
1295.3009474386      2380.03 
1308.253956913      3424.56 
1321.3364964821      3974.11 
1334.5498614469     4886.485 
1347.8953600614      5573.11 
1361.374313662      6241.29 
1374.9880567986      6854.08 
1388.7379373666       8009.2 
1402.6253167403     9317.355 
1416.6515699077      10671.2 
1430.8180856068 11922.294117647 
1445.1262664628 14551.376923077 
1459.5775291275      15724.8 
1474.1733044187      18174.2 
1488.9150374629      22124.9 
1503.8041878376 24084.513636364 
1518.8422297159      23757.6 
1534.0306520131      44176.4 
1549.3709585332      57898.6 
1564.8646681186      63730.5 
1580.5133147997     88645.95 
1596.3184479477      95626.6 
1612.2816324272     99512.35 
1628.4044487515       125940 
1644.688493239       138271 
1661.1353781714 234273.04545455 
1677.7467319531       468348 
1694.5241992726       657992 
1711.4694412654      2371225 
1728.584135678      3641430 
1745.8699770348      4999820 
1763.3286768051      3538540 
1780.9619635732      5773450 
1798.7715832089      5035795 
1816.759299041      4627150 
1834.9268920314      3919415 
1853.2761609517      5774980 
1871.8089225613      6224350 
1890.5270117869      6832045 
1909.4322819047      6628470 
1928.5266047238      5300230 
1947.811870771 8879234.5454545 
1967.2899894787 8583692.9411765 
1986.9628893735 8349420.4761905 
2006.8325182673      7340720 
2026.9008434499      9519590 
2047.1698518844      9069520 
2067.6415504033     11864965 
2088.3179659073     11029200 
2109.2011455664     12023650 
2130.293157022     11086035 
2151.5960885923     11861150 
2173.1120494782     12064050 
2194.843169973 12382333.333333 
2216.7916016727     12049400 
2238.9595176894     11187200 
2261.3491128663     10774050 
2283.962603995     12003600 
2306.8022300349     11228300 
2329.8702523353      7054700 
2353.1689548586 8308936.6666667 
2376.7006444072      5591775 
2400.4676508513      6566370 
2424.4723273598 10582556.666667 
2448.7170506334     11450700 
2473.2042211397 9393026.6666667 
2497.9362633511 10258636.086957 
2522.9156259846 6419058.8888889 
2548.1447822445      8267200 
2573.6262300669     10188020 
2599.3624923676 9138793.3333333 
2625.3561172913     14653400 
2651.6096784642 15793066.666667 
2678.1257752488     14723000 
2704.9070330013 13817333.333333 
2731.9561033313     11396270 
2759.2756643647 12624533.333333 
2786.8684210083      4710140 
2814.7371052184     16662700 
2842.8844762706 15108833.333333 
2871.3133210333 16843633.333333 
2900.0264542436     20224300 
2929.026718786     18417350 
2958.3169859739     19905700 
2987.9001558336     20209000 
3017.779157392     20352100 
3047.9569489659     20751250 
3078.4365184556     21498400 
3109.2208836401     20761050 
3140.3130924765     21191050 
3171.7162234013     19338700 
3203.4333856353     19508950 
3235.4677194916     20336800 
3267.8223966866     21416500 
3300.5006206534     21720100 
3333.50562686     21170400 
3366.8406831286     20687350 
3400.5090899598     20817850 
3434.5141808594     21055400 
3468.859322668     20886600 
3503.5479158947     21189350 
3538.5833950537     21354150 
3573.9692290042     20171900 
3609.7089212942     20470340 
3645.8060105072     21765400 
3682.2640706123     21077650 
3719.0867113184     21703000 
3756.2775784316     26827600 
3793.8403542159     29288550 
3831.778757758     36738850 
3870.0965453356     25949200 
3908.797510789     32879300 
3947.8854858969     29368250 
3987.3643407558     40314450 
4027.2379841634     41876500 
4067.510364005     37687650 
4108.1854676451     34169450 
4149.2673223215 41701433.333333 
4190.7599955447     40644650 
4232.6675955002     39957050 
4274.9942714552     37462400 
4317.7442141697     29416450 
4360.9216563114     38404000 
4404.5308728746     37902150 
4448.5761816033 38152766.666667 
4493.0619434193     38556600 
4537.9925628535     38091600 
4583.3724884821     37367950 
4629.2062133669     36987800 
4675.4982755006     34929600 
4722.2532582556     36070550 
4769.4757908381 35055033.333333 
4817.1705487465     30346100 
4865.342254234     28746800 
4913.9956767763     32566750 
4963.1356335441     31757000 
5012.7669898795     31371350 
5062.8946597783 31447433.333333 
5113.5236063761     30205200 
5164.6588424398     29033600 
5216.3054308642     29369050 
5268.4684851729 28312266.666667 
5321.1531700246     27867300 
5374.3647017249     27410600 
5428.1083487421 27412666.666667 
5482.3894322295 26829366.666667 
5537.2133265518 26231533.333333 
5592.5854598173     25943250 
5648.5113144155     25366200 
5704.9964275597 25096766.666667 
5762.0463918353 24609433.333333 
5819.6668557536     24131100 
5877.8635243112 23390833.333333 
5936.6421595543 23058166.666667 
5996.0085811498 22405733.333333 
6055.9686669613 22021066.666667 
6116.5283536309 20999833.333333 
6177.6936371672 21024933.333333 
6239.4705735389     20451400 
6301.8652792743 19967033.333333 
6364.883932067     19548500 
6428.5327713877     18935425 
6492.8180991016 17468033.333333 
6557.7462800926 15948866.666667 
6623.3237428935 17829133.333333 
6689.5569803225     17484850 
6756.4525501257 17110333.333333 
6824.0170756269     16670950 
6892.2572463832     16285200 
6961.179818847     15824550 
7030.7916170355 15497933.333333 
7101.0995332059     14971125 
7172.1105285379 14630666.666667 
7243.8316338233     14314300 
7316.2699501615     14044700 
7389.4326496631     13562400 
7463.3269761598     13276350 
7537.9602459214     13003000 
7613.3398483806 12651433.333333 
7689.4732468644     12355075 
7766.367979333     12018775 
7844.0316591264     11696650 
7922.4719757176     11374950 
8001.6966954748     11133825 
8081.7136624296     10891100 
8162.5307990539     10498350 
8244.1561070444     10320575 
8326.5976681148   10053912.5 
8409.863644796      9747440 
8493.9622812439    9152807.5 
8578.9019040564    9188077.5 
8664.6909230969      8589084 
8751.3378323279    8935622.5 
8838.8512106512    8275807.5 
8927.2397227577      8366816 
9016.5121199853      8138555 
9106.6772411851      8324644 
9197.744013597    7269272.5 
9289.721453733      7983600 
9382.6186682703      7660746 
9476.444854953      6904326 
9571.2093035025    7208587.5 
9666.9213965375      7117178 
9763.5906105029      6974438 
9861.226516608      6722090 
9959.838781774      6328882 
10059.437169592      6013265 
10160.031541288      6218940 
10261.631856701      6083900 
10364.248175268      5914260 
10467.89065702      5697125 
10572.56956359 5496023.3333333 
10678.295259226      5308815 
10785.078211819      5109285 
10892.928993937      4548045 
11001.858283876      4930085 
11111.876866715      4821860 
11222.995635382 4629553.3333333 
11335.225591736      4484655 
11448.577847653      4429135 
11563.06362613      4231100 
11678.694262391      4108625 
11795.481205015      3984570 
11913.436017065 3905096.6666667 
12032.570377236      3777010 
12152.896081008      3712345 
12274.425041818 3591993.3333333 
12397.169292236      3495595 
12521.140985159      3367970 
12646.35239501      3266030 
12772.81591896      2928560 
12900.54407815 3065616.6666667 
13029.549518932      2993770 
13159.845014121 2904516.6666667 
13291.443464262      2828980 
13424.357898905      2748340 
13558.601477894 2648543.3333333 
13694.187492673 2549843.3333333 
13831.129367599      2492860 
13969.440661275 2423453.3333333 
14109.135067888      2339270 
14250.226418567      2263790 
14392.728682753      2163350 
14536.65596958 2116685.6666667 
14682.022529276      2038230 
14828.842754569 1980003.3333333 
14977.131182115 1914116.6666667 
15126.902493936      1865740 
15278.171518875 1800793.3333333 
15430.953234064 1741513.3333333 
15585.262766404 1684003.3333333 
15741.115394068 1609356.6666667 
15898.526548009 1575501.4285714 
16057.511813489      1484980 
16218.086931624      1483585 
16380.26780094      1367340 
16544.07047895      1417655 
16709.511183739      1277065 
16876.606295577      1317820 
17045.372358532      1277925 
17215.826082118      1146060 
17387.984342939      1151725 
17561.864186368      1135210 
17737.482828232      1105095 
17914.857656514      1056100 
18094.006233079     945134.5 
18274.94629541     975571.5 
18457.695758364       945105 
18642.272715948     860032.5 
18828.695443107     869188.5 
19016.982397539     854570.5 
19207.152221514       812031 
19399.223743729       737154 
19593.215981166       759617 
19789.148140978     735585.5 
19987.039622388       710625 
20186.910018612     682140.5 
20388.779118798     660646.5 
20592.666909986     634999.5 
20798.593579086       612957 
21006.579514877       591065 
21216.645310025     569521.5 
21428.811763126       546745 
21643.099880757       502689 
21859.530879564       505861 
22078.12618836     489679.5 
22298.907450244       474300 
22521.896524746     456861.5 
22747.115489993 439285.66666667 
22974.586644893       422517 
23204.332511342       409233 
23436.375836456 393566.66666667 
23670.73959482       377229 
23907.446990769       366159 
24146.521460676 351783.33333333 
24387.986675283       338175 
24631.866542036       325300 
24878.185207456     313191.5 
25126.967059531 301877.33333333 
25378.236730126       290646 
25632.019097427       279073 
25888.339288402     269562.5 
26147.222681286 248016.33333333 
26408.694908098       248952 
26672.781857179     236857.5 
26939.509675751 234214.33333333 
27208.904772509       224255 
27480.993820234 210065.33333333 
27755.803758436       208705 
28033.361796021       202022 
28313.695413981 193423.66666667 
28596.832368121 179945.33333333 
28882.800691802 178774.66666667 
29171.62869872 172178.66666667 
29463.344985707 165778.33333333 
29757.978435564 159368.66666667 
30055.55821992       149734 
30356.113802119       145221 
30659.67494014 142179.66666667 
30966.271689541 136830.66666667 
31275.934406437 132066.33333333 
31588.693750501 127500.66666667 
31904.580688006     123164.2 
32223.626494886       118025 
32545.862759835       113534 
32871.321387434     106113.5 
33200.034601308     104599.5 
33532.034947321       100965 
33867.355296794     97647.65 
34206.028849762     93638.05 
34548.08913826      90583.8 
34893.570029642      87701.4 
35242.505729939     83932.75 
35594.930787238      80340.5 
35950.880095111     77028.05 
36310.388896062      74483.7 
36673.492785022      72036.4 
37040.227712872     68214.65 
37410.629990001      65105.8 
37784.736289901     63704.25 
38162.5836528     61324.35 
38544.209489328     58844.45 
38929.651584221     56513.45 
39318.948100064      54555.2 
39712.137581064     52139.75 
40109.258956875     49148.45 
40510.351546444      48454.1 
40915.455061908      46884.5 
41324.609612527     44631.45 
41737.855708653      43338.3 
42155.234265739      41969.3 
42576.786608396      40484.1 
43002.55447448     39025.15 
43432.580019225      37161.7 
43866.905819417 35872.966666667 
44305.574877612      34498.6 
44748.630626388      33347.7 
45196.116932652     32224.55 
45648.078101978 30843.633333333 
46104.558882998      28829.4 
46565.604471828     27990.15 
47031.260516546      27449.7 
47501.573121712        26377 
47976.588852929      25540.5 
48456.354741458        24537 
48940.918288873     23572.75 
49430.327471761 22666.166666667 
49924.630746479     21797.55 
50423.877053944 20963.033333333 
50928.115824483     19732.55 
51437.396982728 19393.666666667 
51951.770952555      18716.4 
52471.288662081 18039.466666667 
52996.001548702      17263.4 
53525.961564189     16614.85 
54061.221179831 16051.533333333 
54601.833391629 15368.833333333 
55147.851725545     14817.65 
55699.330242801      14324.7 
56256.323545229 13747.433333333 
56818.886780681 13159.233333333 
57387.075648488      12662.9 
57960.946404973 12165.233333333 
58540.555869022 11498.666666667 
59125.961427713 11150.533333333 
59717.22104199 10798.266666667 
60314.39325241 10389.933333333 
60917.537184934 9993.9866666667 
61526.712556783 9624.5166666667 
62141.979682351 9249.8966666667 
62763.399479174 8862.7633333333 
63391.033473966 8601.2266666667 
64024.943808706 8226.8842857143 
64665.193246793      7943.36 
65311.845179261     7666.745 
65964.963631053      7309.84 
66624.613267364       7055.5 
67290.859400038     6760.905 
67963.767994038     6504.315 
68643.405673978       6284.7 
69329.839730718     6074.845 
70023.138128025      5807.98 
70723.369509305      5557.87 
71430.603204399       5376.3 
72144.909236443     5200.815 
72866.358328807      4984.08 
73595.021912095     4772.155 
74330.972131216     4446.085 
75074.281852528      4381.24 
75825.024671053       4256.3 
76583.274917764      4127.18 
77349.107666942      3959.87 
78122.598743611      3806.12 
78903.824731047     3657.105 
79692.862978358      3514.69 
80489.791608141     3379.605 
81294.689524223      3244.77 
82107.636419465      3128.84 
82928.712783659     3011.165 
83757.999911496      2899.27 
84595.579910611 2768.5666666667 
85441.535709717       2643.2 
86295.951066814      2540.69 
87158.910577482     2431.185 
88030.499683257     2370.775 
88910.80468009      2288.45 
89799.912726891 2190.1066666667 
90697.91185416      2096.46 
91604.890972701      2026.06 
92520.939882428      1941.43 
93446.149281253      1851.07 
94380.610774065     1799.775 
95324.416881806 1726.5366666667 
96277.661050624      1657.46 
97240.43766113 1591.0933333333 
98212.842037741       1528.7 
99194.970458119     1480.565 
100186.9201627      1445.79 
199060.83304441      92.7651 
399467.9878358      5.77952 
594753.39981818      1.13228 
793700.71765891     0.355551 
997811.18987739     0.144672 
1193529.3359837    0.0693654 
1399507.0114645    0.0372522 
