#  WAVELENGTH	        FLUX	
#  (ANGSTROM)	(ERG/CM2/S/A)	
############	############	
539.62217778206   5.9233E-25 
545.01839955988  2.26773E-24 
555.97326939103  8.20793E-24 
567.14833210579  2.83191E-23 
578.54801358112  9.23795E-23 
584.33349371693  2.94923E-22 
596.07859694064   8.9417E-22 
608.05977673914  2.60917E-21 
614.14037450653  7.33388E-21 
626.48459603412  1.99072E-20 
639.0769364144  5.22934E-20 
645.46770577855  1.33064E-19 
651.92238283633  2.74819E-19 
658.44160666469  5.10031E-19 
671.67628295866  1.20636E-18 
678.39304578824  2.77868E-18 
692.02874600859  6.23296E-18 
698.94903346867  1.36003E-17 
712.99790904139  3.14132E-17 
720.12788813181  6.54909E-17 
734.60245868325  1.24562E-16 
741.94848327009  2.49438E-16 
749.36796810279   4.8978E-16 
764.43026426165  9.44166E-16 
772.07456690427  1.78491E-15 
779.79531257331  3.31921E-15 
787.59326569905  6.01851E-15 
803.4238903396  1.08672E-14 
811.45812924299  1.92805E-14 
819.57271053542  3.36166E-14 
827.76843764078  5.77664E-14 
844.40658323736  9.78726E-14 
852.85064906973  1.63632E-13 
861.37915556043  2.69931E-13 
869.99294711603  4.39022E-13 
878.69287658719  7.07837E-13 
887.47980535306  1.12621E-12 
896.3546034066   1.7709E-12 
914.37133093507   4.58119E-9 
923.51504424442    1.7932E-8 
932.75019468686   2.50703E-8 
942.07769663373   4.04807E-8 
951.49847360007   6.29228E-8 
961.01345833607   9.95122E-8 
970.62359291943   1.37959E-7 
980.32982884862   2.06722E-7 
990.13312713711   2.95151E-7 
1000.0344584085   4.56131E-7 
1010.0348029926   6.52369E-7 
1020.1351510225   8.52984E-7 
1030.3365025327   1.36323E-6 
1040.639867558   1.97037E-6 
1051.0462662336    2.5545E-6 
1061.556728896   3.69413E-6 
1072.1722961849   5.12043E-6 
1082.8940191468   7.02339E-6 
1093.7229593382   8.96499E-6 
1104.6601889316   1.44773E-5 
1115.7067908209    2.3747E-5 
1126.8638587291   3.36658E-5 
1138.1324973164   4.55661E-5 
1149.5138222896   5.93832E-5 
1161.0089605125   7.92417E-5 
1172.6190501176  0.000105191 
1184.3452406188  0.000143378 
1196.188693025  0.000180942 
1208.1505799552  0.000131315 
1220.2320857548  0.000285116 
1232.4344066123   0.00042563 
1244.7587506785  0.000610087 
1257.2063381852  0.000829586 
1269.7784015671   0.00103606 
1282.4761855828   0.00137377 
1295.3009474386   0.00177326 
1308.253956913   0.00227795 
1321.3364964821   0.00267737 
1334.5498614469   0.00363393 
1347.8953600614    0.0049672 
1361.374313662   0.00589614 
1374.9880567986  0.007653895 
1388.7379373666    0.0100032 
1402.6253167403    0.0136595 
1416.6515699077     0.017307 
1430.8180856068    0.0233006 
1445.1262664628 0.028443392307692 
1459.5775291275    0.0377658 
1474.1733044187   0.04602325 
1488.9150374629    0.0629951 
1503.8041878376   0.07662525 
1518.8422297159     0.101296 
1534.0306520131    0.2854535 
1549.3709585332     0.504656 
1564.8646681186    0.8132345 
1580.5133147997     1.487855 
1596.3184479477      1.76737 
1612.2816324272     2.103725 
1628.4044487515      2.88859 
1644.688493239      3.63137 
1661.1353781714 5.9122654545455 
1677.7467319531      15.1835 
1694.5241992726     27.30415 
1711.4694412654      37.9287 
1728.584135678      64.2172 
1745.8699770348      95.8637 
1763.3286768051      93.7778 
1780.9619635732     144.4675 
1798.7715832089      178.611 
1816.759299041      226.889 
1834.9268920314     214.2045 
1853.2761609517       281.23 
1871.8089225613     360.0835 
1890.5270117869     490.5985 
1909.4322819047      562.492 
1928.5266047238      526.268 
1947.811870771 929.08363636364 
1967.2899894787 1083.1964705882 
1986.9628893735 1189.4061904762 
2006.8325182673     1210.355 
2026.9008434499       1605.2 
2047.1698518844     1830.285 
2067.6415504033    2172.6245 
2088.3179659073      4750.33 
2109.2011455664     6267.595 
2130.293157022     7273.025 
2151.5960885923      7484.24 
2173.1120494782     8271.135 
2194.843169973 9518.3633333333 
2216.7916016727      12540.2 
2238.9595176894      13993.3 
2261.3491128663     11931.95 
2283.962603995 16039.233333333 
2306.8022300349      17421.5 
2329.8702523353     16887.05 
2353.1689548586 18435.533333333 
2376.7006444072      17021.9 
2400.4676508513     20036.85 
2424.4723273598 31843.033333333 
2448.7170506334      36123.8 
2473.2042211397 21080.733333333 
2497.9362633511 24913.930434783 
2522.9156259846 26448.32962963 
2548.1447822445      76969.8 
2573.6262300669 96577.766666667 
2599.3624923676      85518.6 
2625.3561172913       271183 
2651.6096784642 373059.33333333 
2678.1257752488     324456.5 
2704.9070330013 234165.33333333 
2731.9561033313 158318.33333333 
2759.2756643647       211305 
2786.8684210083      64675.6 
2814.7371052184 254103.66666667 
2842.8844762706 113340.66666667 
2871.3133210333 458340.66666667 
2900.0264542436       877750 
2929.026718786       765085 
2958.3169859739       743989 
2987.9001558336       704334 
3017.779157392       844030 
3047.9569489659     966194.5 
3078.4365184556       985613 
3109.2208836401      1196100 
3140.3130924765      1248110 
3171.7162234013      1118780 
3203.4333856353    1085474.5 
3235.4677194916      1511240 
3267.8223966866      1855425 
3300.5006206534      1645640 
3333.50562686      1569660 
3366.8406831286      1185210 
3400.5090899598      1393060 
3434.5141808594      1524300 
3468.859322668      1735395 
3503.5479158947      1850500 
3538.5833950537      1574845 
3573.9692290042      1327810 
3609.7089212942      1881134 
3645.8060105072 2410153.3333333 
3682.2640706123      2317035 
3719.0867113184      1515880 
3756.2775784316      2117005 
3793.8403542159    1405625.5 
3831.778757758      1204425 
3870.0965453356      2034610 
3908.797510789      1885560 
3947.8854858969      1866210 
3987.3643407558      3553200 
4027.2379841634      3480305 
4067.510364005      3593900 
4108.1854676451      3730270 
4149.2673223215 3390123.3333333 
4190.7599955447      3607880 
4232.6675955002      3578850 
4274.9942714552      2839135 
4317.7442141697      3959180 
4360.9216563114      4019600 
4404.5308728746      4307915 
4448.5761816033 4760713.3333333 
4493.0619434193      5295415 
4537.9925628535      5363080 
4583.3724884821      5338955 
4629.2062133669      5388410 
4675.4982755006      5322545 
4722.2532582556      5589930 
4769.4757908381      5688060 
4817.1705487465      5612955 
4865.342254234      5289670 
4913.9956767763      5510425 
4963.1356335441 5232876.6666667 
5012.7669898795      5236610 
5062.8946597783 5325433.3333333 
5113.5236063761      5010120 
5164.6588424398 4579216.6666667 
5216.3054308642      5344025 
5268.4684851729 5320556.6666667 
5321.1531700246      5385800 
5374.3647017249      5344235 
5428.1083487421      5515710 
5482.3894322295      5444770 
5537.2133265518      5456950 
5592.5854598173      5542400 
5648.5113144155      5473410 
5704.9964275597      5579110 
5762.0463918353 5554076.6666667 
5819.6668557536 5648956.6666667 
5877.8635243112      5331960 
5936.6421595543 5537356.6666667 
5996.0085811498      5470670 
6055.9686669613 5381863.3333333 
6116.5283536309 5050733.3333333 
6177.6936371672 5232036.6666667 
6239.4705735389 5123613.3333333 
6301.8652792743 5063156.6666667 
6364.883932067      5057670 
6428.5327713877      4978865 
6492.8180991016 4995353.3333333 
6557.7462800926      4849760 
6623.3237428935      4898990 
6689.5569803225      4867840 
6756.4525501257      4794400 
6824.0170756269      4737665 
6892.2572463832      4665690 
6961.179818847      4552490 
7030.7916170355      4517410 
7101.0995332059    4403387.5 
7172.1105285379 4299703.3333333 
7243.8316338233      4292385 
7316.2699501615 4264046.6666667 
7389.4326496631      4149930 
7463.3269761598    4167137.5 
7537.9602459214    4119802.5 
7613.3398483806 4053143.3333333 
7689.4732468644      3998595 
7766.367979333      3987660 
7844.0316591264    3884162.5 
7922.4719757176      3758550 
8001.6966954748    3726712.5 
8081.7136624296    3641947.5 
8162.5307990539    3555432.5 
8244.1561070444      3550130 
8326.5976681148      3448650 
8409.863644796      3415078 
8493.9622812439      3183645 
8578.9019040564      3324120 
8664.6909230969      3154788 
8751.3378323279      3210635 
8838.8512106512      3192730 
8927.2397227577      3107514 
9016.5121199853      3081610 
9106.6772411851      2981326 
9197.744013597    2851612.5 
9289.721453733      2870286 
9382.6186682703      2766374 
9476.444854953      2753104 
9571.2093035025      2717815 
9666.9213965375      2673186 
9763.5906105029      2641558 
9861.226516608      2617440 
9959.838781774 2588865.3333333 
10059.437169592      2533030 
10160.031541288      2481390 
10261.631856701      2452260 
10364.248175268      2406155 
10467.89065702      2364740 
10572.56956359 2298513.3333333 
10678.295259226      2240520 
10785.078211819      2166790 
10892.928993937      2087365 
11001.858283876      2044035 
11111.876866715      2030015 
11222.995635382      1995020 
11335.225591736      1946680 
11448.577847653      1954895 
11563.06362613      1897620 
11678.694262391      1879785 
11795.481205015      1826175 
11913.436017065 1799646.6666667 
12032.570377236      1764345 
12152.896081008      1766195 
12274.425041818 1726373.3333333 
12397.169292236      1693455 
12521.140985159 1662136.6666667 
12646.35239501      1627800 
12772.81591896      1580990 
12900.54407815      1559530 
13029.549518932      1531570 
13159.845014121 1498346.6666667 
13291.443464262      1476650 
13424.357898905      1460030 
13558.601477894 1414313.3333333 
13694.187492673 1394616.6666667 
13831.129367599      1372725 
13969.440661275 1340746.6666667 
14109.135067888 1287996.6666667 
14250.226418567 1261386.6666667 
14392.728682753      1231280 
14536.65596958 1212168.3333333 
14682.022529276 1177426.6666667 
14828.842754569      1161940 
14977.131182115 1124756.6666667 
15126.902493936 1126566.6666667 
15278.171518875 1109226.6666667 
15430.953234064      1080170 
15585.262766404      1060850 
15741.115394068      1004665 
15898.526548009 1004868.5714286 
16057.511813489       977824 
16218.086931624     967019.5 
16380.26780094       929968 
16544.07047895       923079 
16709.511183739       871660 
16876.606295577       870274 
17045.372358532     832285.5 
17215.826082118       784362 
17387.984342939       767115 
17561.864186368       748786 
17737.482828232     726356.5 
17914.857656514     699565.5 
18094.006233079       662117 
18274.94629541     640818.5 
18457.695758364       626380 
18642.272715948     592466.5 
18828.695443107     575706.5 
19016.982397539       564539 
19207.152221514       540598 
19399.223743729       514447 
19593.215981166     501128.5 
19789.148140978       485484 
19987.039622388     474087.5 
20186.910018612       451255 
20388.779118798     440585.5 
20592.666909986       422806 
20798.593579086       407129 
21006.579514877     396547.5 
21216.645310025       382908 
21428.811763126     371261.5 
21643.099880757 350149.66666667 
21859.530879564     339700.5 
22078.12618836     330131.5 
22298.907450244       318687 
22521.896524746       307737 
22747.115489993       291889 
22974.586644893     280339.5 
23204.332511342     262689.5 
23436.375836456 254593.33333333 
23670.73959482     241213.5 
23907.446990769     239022.5 
24146.521460676       226186 
24387.986675283     215866.5 
24631.866542036 210718.66666667 
24878.185207456     205664.5 
25126.967059531       197522 
25378.236730126     190276.5 
25632.019097427       184536 
25888.339288402     179678.5 
26147.222681286 172135.66666667 
26408.694908098 165650.66666667 
26672.781857179     162443.5 
26939.509675751 157025.33333333 
27208.904772509 151321.33333333 
27480.993820234 145002.33333333 
27755.803758436     140930.5 
28033.361796021       136572 
28313.695413981       131497 
28596.832368121       126157 
28882.800691802 121905.33333333 
29171.62869872 116860.66666667 
29463.344985707 112957.33333333 
29757.978435564       108616 
30055.55821992 104504.66666667 
30356.113802119 100768.26666667 
30659.67494014 97163.133333333 
30966.271689541 93630.466666667 
31275.934406437 90444.666666667 
31588.693750501 87211.633333333 
31904.580688006      84430.5 
32223.626494886      80783.7 
32545.862759835      77978.7 
32871.321387434        75009 
33200.034601308      71819.6 
33532.034947321        69482 
33867.355296794     66948.45 
34206.028849762     64379.95 
34548.08913826      62271.7 
34893.570029642        60337 
35242.505729939     57701.35 
35594.930787238      55218.9 
35950.880095111     53126.95 
36310.388896062      51100.8 
36673.492785022     49431.25 
37040.227712872      47325.4 
37410.629990001     45299.85 
37784.736289901      43813.8 
38162.5836528      42329.5 
38544.209489328      40540.6 
38929.651584221     39139.85 
39318.948100064     37483.05 
39712.137581064     35919.95 
40109.258956875     34711.05 
40510.351546444     33461.45 
40915.455061908     32339.95 
41324.609612527     31102.85 
41737.855708653      29897.7 
42155.234265739     28968.25 
42576.786608396     27566.05 
43002.55447448     25950.75 
43432.580019225      24449.4 
43866.905819417      23102.5 
44305.574877612      21775.7 
44748.630626388     21147.05 
45196.116932652      20073.1 
45648.078101978 19327.266666667 
46104.558882998     18557.55 
46565.604471828      18112.4 
47031.260516546 17469.833333333 
47501.573121712      16814.4 
47976.588852929     16357.55 
48456.354741458      15765.3 
48940.918288873      15172.5 
49430.327471761        14641 
49924.630746479      14106.4 
50423.877053944 13605.133333333 
50928.115824483     13108.05 
51437.396982728 12716.766666667 
51951.770952555      12227.7 
52471.288662081 11882.333333333 
52996.001548702      11381.2 
53525.961564189     11018.55 
54061.221179831      10650.3 
54601.833391629      10233.7 
55147.851725545      9933.65 
55699.330242801      9620.51 
56256.323545229 9256.7333333333 
56818.886780681 8903.7266666667 
57387.075648488 8587.2366666667 
57960.946404973      8262.64 
58540.555869022 7941.7233333333 
59125.961427713 7662.5733333333 
59717.22104199 7393.1333333333 
60314.39325241 7110.7166666667 
60917.537184934 6851.8666666667 
61526.712556783      6628.77 
62141.979682351      6372.55 
62763.399479174      6156.16 
63391.033473966 5946.2466666667 
64024.943808706 5694.1457142857 
64665.193246793      5502.21 
65311.845179261     5323.085 
65964.963631053      5080.85 
66624.613267364      4908.14 
67290.859400038     4740.105 
67963.767994038     4532.925 
68643.405673978      4381.26 
69329.839730718      4237.21 
70023.138128025     4051.065 
70723.369509305     3880.315 
71430.603204399      3754.78 
72144.909236443     3634.595 
72866.358328807       3482.3 
73595.021912095      3336.93 
74330.972131216     3195.655 
75074.281852528     3069.635 
75825.024671053      2976.76 
76583.274917764     2885.065 
77349.107666942      2771.82 
78122.598743611      2662.61 
78903.824731047      2558.43 
79692.862978358      2458.54 
80489.791608141     2364.125 
81294.689524223     2273.405 
82107.636419465     2190.195 
82928.712783659      2107.49 
83757.999911496     2030.285 
84595.579910611 1938.8066666667 
85441.535709717      1851.48 
86295.951066814       1785.8 
87158.910577482      1722.18 
88030.499683257      1660.15 
88910.80468009     1602.875 
89799.912726891      1534.27 
90697.91185416     1468.455 
91604.890972701      1420.19 
92520.939882428 1361.1066666667 
93446.149281253     1305.015 
94380.610774065      1261.89 
95324.416881806 1211.0066666667 
96277.661050624     1162.355 
97240.43766113      1115.36 
98212.842037741      1072.57 
99194.970458119      1038.64 
100186.9201627      1014.77 
199060.83304441      65.4909 
399467.9878358      4.09999 
594753.39981818     0.804676 
793700.71765891     0.252751 
997811.18987739     0.102802 
1193529.3359837     0.049255 
1399507.0114645    0.0264288 
