#  WAVELENGTH	        FLUX	
#  (ANGSTROM)	(ERG/CM2/S/A)	
############	############	
384.7362270329    1.072E-24 
392.46942519626  7.59713E-24 
404.36164124913  4.86368E-23 
412.48931023824  2.38594E-22 
420.78034537403  9.23124E-22 
429.23803031605  3.38631E-21 
437.8657147254  1.86437E-20 
446.66681559138  8.13802E-20 
455.64481858477  2.89242E-19 
469.4513122327   1.1143E-18 
478.88728360858  4.04234E-18 
488.51291800911  1.38698E-17 
498.3320276611  4.51038E-17 
503.31534793771  1.18518E-16 
508.34850141708  2.60031E-16 
518.56630629557  6.14557E-16 
528.98948905211   1.7431E-15 
539.62217778206  4.65952E-15 
545.01839955988  1.21737E-14 
555.97326939103   3.0452E-14 
567.14833210579  7.35094E-14 
578.54801358112  1.69663E-13 
584.33349371693  3.88321E-13 
596.07859694064  8.52772E-13 
608.05977673914  1.82382E-12 
614.14037450653   3.7916E-12 
626.48459603412  7.68611E-12 
639.0769364144  1.52063E-11 
645.46770577855  2.94313E-11 
651.92238283633  4.91069E-11 
658.44160666469  7.58607E-11 
671.67628295866  1.39249E-10 
678.39304578824  2.50578E-10 
692.02874600859  4.42617E-10 
698.94903346867  7.63502E-10 
712.99790904139   1.37838E-9 
720.12788813181   2.30773E-9 
734.60245868325   3.62062E-9 
741.94848327009   5.88373E-9 
749.36796810279   9.43171E-9 
764.43026426165   1.49167E-8 
772.07456690427    2.3279E-8 
779.79531257331   3.59094E-8 
787.59326569905   5.40532E-8 
803.4238903396   8.17381E-8 
811.45812924299   1.22124E-7 
819.57271053542   1.79723E-7 
827.76843764078   2.61681E-7 
844.40658323736   3.77286E-7 
852.85064906973   5.38586E-7 
861.37915556043   7.61692E-7 
869.99294711603   1.06279E-6 
878.69287658719   1.48239E-6 
887.47980535306   2.04247E-6 
896.3546034066   2.77144E-6 
914.37133093507    0.0018363 
923.51504424442   0.00554334 
932.75019468686    0.0074943 
942.07769663373    0.0101988 
951.49847360007    0.0146136 
961.01345833607    0.0197677 
970.62359291943    0.0258382 
980.32982884862    0.0338658 
990.13312713711    0.0428778 
1000.0344584085    0.0594399 
1010.0348029926    0.0773006 
1020.1351510225    0.0964001 
1030.3365025327     0.126222 
1040.639867558     0.162559 
1051.0462662336     0.206842 
1061.556728896     0.256063 
1072.1722961849     0.326159 
1082.8940191468     0.410131 
1093.7229593382     0.501049 
1104.6601889316     3.564885 
1115.7067908209      8.26345 
1126.8638587291      11.6605 
1138.1324973164      14.8908 
1149.5138222896      16.6379 
1161.0089605125      22.9568 
1172.6190501176      27.0212 
1184.3452406188     21.32185 
1196.188693025      13.8283 
1208.1505799552      3.58222 
1220.2320857548      16.7666 
1232.4344066123       41.869 
1244.7587506785     187.4255 
1257.2063381852      257.977 
1269.7784015671       533.13 
1282.4761855828     1020.777 
1295.3009474386      753.957 
1308.253956913      1631.95 
1321.3364964821      2122.31 
1334.5498614469     2763.075 
1347.8953600614      3387.86 
1361.374313662      3734.48 
1374.9880567986      4412.54 
1388.7379373666      5613.91 
1402.6253167403      6474.36 
1416.6515699077      7776.62 
1430.8180856068 8474.3652941176 
1445.1262664628 11888.130769231 
1459.5775291275      12892.1 
1474.1733044187     15705.85 
1488.9150374629      20189.8 
1503.8041878376 22065.795454545 
1518.8422297159      21002.1 
1534.0306520131      92099.1 
1549.3709585332       113736 
1564.8646681186     133203.1 
1580.5133147997     298125.5 
1596.3184479477       268154 
1612.2816324272       200887 
1628.4044487515       201526 
1644.688493239       219038 
1661.1353781714 269759.00454545 
1677.7467319531      1020320 
1694.5241992726      1247105 
1711.4694412654      2205865 
1728.584135678      2892290 
1745.8699770348      3731790 
1763.3286768051      3236000 
1780.9619635732      3985995 
1798.7715832089      4204530 
1816.759299041      3677010 
1834.9268920314      3158715 
1853.2761609517      4193050 
1871.8089225613      4193270 
1890.5270117869      4710695 
1909.4322819047      4405330 
1928.5266047238      3896915 
1947.811870771 5944564.5454545 
1967.2899894787      6024560 
1986.9628893735 5628540.4761905 
2006.8325182673      4540625 
2026.9008434499      5932140 
2047.1698518844      5042930 
2067.6415504033    7132996.5 
2088.3179659073      6422285 
2109.2011455664      6392955 
2130.293157022      5366465 
2151.5960885923      5859430 
2173.1120494782      5717145 
2194.843169973 5932233.3333333 
2216.7916016727      5485095 
2238.9595176894      5028750 
2261.3491128663      4912310 
2283.962603995 5603863.3333333 
2306.8022300349      4866635 
2329.8702523353      2284910 
2353.1689548586 2784216.6666667 
2376.7006444072      1648650 
2400.4676508513      2301160 
2424.4723273598 5210433.3333333 
2448.7170506334      5324265 
2473.2042211397      4794660 
2497.9362633511 5598267.826087 
2522.9156259846 3962187.037037 
2548.1447822445      4605580 
2573.6262300669 4200753.3333333 
2599.3624923676 3160216.6666667 
2625.3561172913      6924170 
2651.6096784642 7706086.6666667 
2678.1257752488      7148700 
2704.9070330013 6644393.3333333 
2731.9561033313      4718710 
2759.2756643647 5420916.6666667 
2786.8684210083      1820115 
2814.7371052184      7395210 
2842.8844762706      7612690 
2871.3133210333 8199933.3333333 
2900.0264542436      9967140 
2929.026718786      9161090 
2958.3169859739     10081800 
2987.9001558336     10531900 
3017.779157392     10715700 
3047.9569489659     10739400 
3078.4365184556     11432000 
3109.2208836401     10844700 
3140.3130924765     11423450 
3171.7162234013     10387400 
3203.4333856353     10804950 
3235.4677194916     11328800 
3267.8223966866     11784350 
3300.5006206534     12091850 
3333.50562686     11743900 
3366.8406831286     11661000 
3400.5090899598     12361650 
3434.5141808594     12435800 
3468.859322668     12119200 
3503.5479158947     12670650 
3538.5833950537     12896400 
3573.9692290042     12553500 
3609.7089212942     12768220 
3645.8060105072     13236100 
3682.2640706123     15968300 
3719.0867113184     28979150 
3756.2775784316     41824800 
3793.8403542159     46984850 
3831.778757758     56780850 
3870.0965453356     38882800 
3908.797510789     44107400 
3947.8854858969     39861400 
3987.3643407558     56332950 
4027.2379841634     55838450 
4067.510364005     52894050 
4108.1854676451     46935800 
4149.2673223215     53592800 
4190.7599955447     51613600 
4232.6675955002     50322850 
4274.9942714552     48542400 
4317.7442141697     39652500 
4360.9216563114     48106950 
4404.5308728746     46067450 
4448.5761816033     46216500 
4493.0619434193     45898700 
4537.9925628535     44729050 
4583.3724884821     44120450 
4629.2062133669 43566033.333333 
4675.4982755006     41315300 
4722.2532582556     42220500 
4769.4757908381     40898400 
4817.1705487465     36982250 
4865.342254234 34446066.666667 
4913.9956767763     37363100 
4963.1356335441 36087733.333333 
5012.7669898795     35188000 
5062.8946597783     35057500 
5113.5236063761     33284450 
5164.6588424398 32096066.666667 
5216.3054308642     31890900 
5268.4684851729     30666600 
5321.1531700246 30327833.333333 
5374.3647017249     29564600 
5428.1083487421 29300866.666667 
5482.3894322295     28610700 
5537.2133265518 27984666.666667 
5592.5854598173     27544250 
5648.5113144155 26732266.666667 
5704.9964275597 26371633.333333 
5762.0463918353 25663533.333333 
5819.6668557536 25027333.333333 
5877.8635243112 24204133.333333 
5936.6421595543     23656600 
5996.0085811498 22950033.333333 
6055.9686669613 22419333.333333 
6116.5283536309 21416733.333333 
6177.6936371672 21267333.333333 
6239.4705735389 20563033.333333 
6301.8652792743 20064133.333333 
6364.883932067     19583900 
6428.5327713877     18931575 
6492.8180991016 17933133.333333 
6557.7462800926 16253233.333333 
6623.3237428935 17720066.666667 
6689.5569803225     17233150 
6756.4525501257 16816733.333333 
6824.0170756269     16323300 
6892.2572463832 15896466.666667 
6961.179818847     15408425 
7030.7916170355 15049966.666667 
7101.0995332059     14488150 
7172.1105285379 14141433.333333 
7243.8316338233     13773800 
7316.2699501615     13466800 
7389.4326496631     13013675 
7463.3269761598     12636725 
7537.9602459214     12395150 
7613.3398483806 12031433.333333 
7689.4732468644     11733350 
7766.367979333     11360325 
7844.0316591264     11007750 
7922.4719757176     10710525 
8001.6966954748     10466700 
8081.7136624296     10211225 
8162.5307990539    9826167.5 
8244.1561070444    9650012.5 
8326.5976681148      9284565 
8409.863644796      9136180 
8493.9622812439      8883125 
8578.9019040564    9533992.5 
8664.6909230969      9072850 
8751.3378323279      9807250 
8838.8512106512      8965780 
8927.2397227577      9053356 
9016.5121199853      8783475 
9106.6772411851      8862578 
9197.744013597    7826002.5 
9289.721453733      8408614 
9382.6186682703      8025288 
9476.444854953      7398994 
9571.2093035025    7545222.5 
9666.9213965375      7352668 
9763.5906105029      7169446 
9861.226516608      6902350 
9959.838781774 6609001.3333333 
10059.437169592      6231985 
10160.031541288      6326760 
10261.631856701      6141835 
10364.248175268      5955890 
10467.89065702      5702125 
10572.56956359 5503013.3333333 
10678.295259226      5302635 
10785.078211819      5152250 
10892.928993937      4706745 
11001.858283876      4910000 
11111.876866715      4756120 
11222.995635382      4536060 
11335.225591736      4389595 
11448.577847653      4317625 
11563.06362613 4109863.3333333 
11678.694262391      3981050 
11795.481205015      3850415 
11913.436017065 3764703.3333333 
12032.570377236      3630230 
12152.896081008      3545440 
12274.425041818      3424360 
12397.169292236      3321355 
12521.140985159 3195476.6666667 
12646.35239501      3114170 
12772.81591896 2895713.3333333 
12900.54407815      2897390 
13029.549518932      2809685 
13159.845014121 2716193.3333333 
13291.443464262      2638525 
13424.357898905 2552483.3333333 
13558.601477894 2455093.3333333 
13694.187492673 2355866.6666667 
13831.129367599      2297480 
13969.440661275 2231486.6666667 
14109.135067888 2150456.6666667 
14250.226418567 2075893.3333333 
14392.728682753 1980266.6666667 
14536.65596958 1931439.6666667 
14682.022529276 1859913.3333333 
14828.842754569 1800473.3333333 
14977.131182115 1730846.6666667 
15126.902493936 1681136.6666667 
15278.171518875 1616916.6666667 
15430.953234064 1581243.3333333 
15585.262766404 1540236.6666667 
15741.115394068 1492126.6666667 
15898.526548009 1491437.1428571 
16057.511813489      1383140 
16218.086931624      1406800 
16380.26780094      1293790 
16544.07047895      1326495 
16709.511183739      1227290 
16876.606295577      1231280 
17045.372358532      1189435 
17215.826082118      1100145 
17387.984342939      1084765 
17561.864186368      1054490 
17737.482828232      1025435 
17914.857656514     986579.5 
18094.006233079       917248 
18274.94629541     912022.5 
18457.695758364       882262 
18642.272715948     831961.5 
18828.695443107     821200.5 
19016.982397539       797473 
19207.152221514       765953 
19399.223743729       715940 
19593.215981166       710556 
19789.148140978       685735 
19987.039622388       661762 
20186.910018612     637018.5 
20388.779118798       615603 
20592.666909986       592697 
20798.593579086     572543.5 
21006.579514877       551639 
21216.645310025     532302.5 
21428.811763126       515820 
21643.099880757       484070 
21859.530879564       473684 
22078.12618836     457748.5 
22298.907450244     443683.5 
22521.896524746     428003.5 
22747.115489993       411744 
22974.586644893     395991.5 
23204.332511342       383782 
23436.375836456       368899 
23670.73959482     354401.5 
23907.446990769       343051 
24146.521460676 329975.66666667 
24387.986675283       317582 
24631.866542036       306447 
24878.185207456       293455 
25126.967059531       284169 
25378.236730126     277465.5 
25632.019097427 263632.66666667 
25888.339288402       258560 
26147.222681286 240697.66666667 
26408.694908098 239703.66666667 
26672.781857179       225174 
26939.509675751       224230 
27208.904772509 215142.33333333 
27480.993820234 202027.66666667 
27755.803758436     199672.5 
28033.361796021 193032.66666667 
28313.695413981 185392.66666667 
28596.832368121 174522.33333333 
28882.800691802       171160 
29171.62869872 164781.66666667 
29463.344985707       158624 
29757.978435564       152623 
30055.55821992 144917.66666667 
30356.113802119       140669 
30659.67494014       136231 
30966.271689541 131177.33333333 
31275.934406437 126603.66666667 
31588.693750501 122264.66666667 
31904.580688006     118125.6 
32223.626494886     113265.5 
32545.862759835       109307 
32871.321387434       103383 
33200.034601308    100407.05 
33532.034947321      96905.2 
33867.355296794      93749.6 
34206.028849762     89890.95 
34548.08913826        86995 
34893.570029642      84229.1 
35242.505729939     80621.25 
35594.930787238      77263.3 
35950.880095111     74053.85 
36310.388896062      71389.9 
36673.492785022     69342.45 
37040.227712872     66528.75 
37410.629990001     63195.65 
37784.736289901      61441.3 
38162.5836528      59252.6 
38544.209489328      57056.2 
38929.651584221      54353.3 
39318.948100064      52975.6 
39712.137581064      50626.4 
40109.258956875     47910.15 
40510.351546444      47195.1 
40915.455061908      45536.1 
41324.609612527      43215.4 
41737.855708653     42192.65 
42155.234265739      40769.5 
42576.786608396      39327.2 
43002.55447448     37930.95 
43432.580019225      36130.5 
43866.905819417      34971.5 
44305.574877612     33557.25 
44748.630626388     32393.35 
45196.116932652     31309.55 
45648.078101978 30003.566666667 
46104.558882998     28361.15 
46565.604471828     27400.35 
47031.260516546 26715.633333333 
47501.573121712      25649.9 
47976.588852929      24845.6 
48456.354741458 23867.666666667 
48940.918288873      22930.8 
49430.327471761 22060.633333333 
49924.630746479      21196.7 
50423.877053944 20409.233333333 
50928.115824483     19395.35 
51437.396982728      18902.4 
51951.770952555     18294.05 
52471.288662081 17546.433333333 
52996.001548702 16880.133333333 
53525.961564189      16124.1 
54061.221179831 15700.133333333 
54601.833391629 15029.733333333 
55147.851725545     14379.65 
55699.330242801 14012.433333333 
56256.323545229      13451.2 
56818.886780681 12802.166666667 
57387.075648488 12393.933333333 
57960.946404973 11901.833333333 
58540.555869022 11319.533333333 
59125.961427713      10876.1 
59717.22104199 10570.566666667 
60314.39325241 10170.266666667 
60917.537184934 9785.7833333333 
61526.712556783 9423.3266666667 
62141.979682351       9067.9 
62763.399479174      8651.56 
63391.033473966 8426.8766666667 
64024.943808706 8065.4271428571 
64665.193246793      7785.07 
65311.845179261      7517.58 
65964.963631053      7167.05 
66624.613267364      6921.37 
67290.859400038      6625.07 
67963.767994038     6376.795 
68643.405673978       6167.9 
69329.839730718     5952.125 
70023.138128025      5702.79 
70723.369509305      5444.65 
71430.603204399      5279.88 
72144.909236443      5092.47 
72866.358328807     4894.505 
73595.021912095      4684.45 
74330.972131216     4385.215 
75074.281852528      4306.43 
75825.024671053       4181.3 
76583.274917764      4055.29 
77349.107666942     3871.685 
78122.598743611     3740.335 
78903.824731047      3594.95 
79692.862978358     3455.255 
80489.791608141     3323.095 
81294.689524223     3173.645 
82107.636419465       3076.8 
82928.712783659      2961.12 
83757.999911496     2850.465 
84595.579910611 2722.7966666667 
85441.535709717     2598.925 
86295.951066814     2486.805 
87158.910577482     2397.235 
88030.499683257     2331.415 
88910.80468009      2252.11 
89799.912726891 2153.9366666667 
90697.91185416     2063.505 
91604.890972701      1994.01 
92520.939882428 1908.4766666667 
93446.149281253     1815.415 
94380.610774065     1769.935 
95324.416881806      1697.99 
96277.661050624     1631.825 
97240.43766113 1566.2666666667 
98212.842037741      1500.92 
99194.970458119     1457.965 
100186.9201627      1423.62 
199060.83304441      91.5143 
399467.9878358      5.70157 
594753.39981818       1.1168 
793700.71765891     0.350619 
997811.18987739     0.142626 
1193529.3359837    0.0683686 
1399507.0114645    0.0367081 
