#  WAVELENGTH	        FLUX	
#  (ANGSTROM)	(ERG/CM2/S/A)	
############	############	
        90.9  1.04291E-10 
    92.72709  3.97267E-10 
95.53681355409    1.4025E-9 
97.457103506527   2.98755E-9 
99.415991287008   7.06092E-9 
101.41425271188   2.00387E-8 
103.45267919139   4.25912E-8 
105.53207804313   8.83467E-8 
107.6532728118   2.01056E-7 
109.81710359532   5.54301E-7 
113.14467165136   1.99734E-6 
117.73879903054   7.14783E-6 
120.10534889105   2.16605E-5 
123.7446610678    6.1849E-5 
126.23192875526  0.000119639 
127.49424804281  0.000171975 
130.05688242847  0.000304298 
131.35745125276  0.000502845 
132.67102576529  0.000740802 
135.33771338317   0.00145461 
139.43858143639   0.00314911 
142.24129692326   0.00703031 
146.55135046134    0.0163064 
150.99200293167    0.0363265 
154.02694219059    0.0831193 
158.69411256591     0.163271 
161.88386422848     0.289065 
165.13772989948     0.578809 
170.14156825316      1.16765 
171.84298393569      1.90485 
175.2970279128      3.20541 
178.82049817385      5.26079 
180.60870315558       6.5332 
186.0813274699      11.9927 
189.82156215205      22.8273 
193.6369755513      32.9553 
197.52907875988      57.0265 
201.49941324296      84.5115 
203.51440737539      121.235 
209.68109743327      219.873 
216.03464436659      391.265 
218.19499081026          562 
222.58071012555      761.809 
224.8065172268      1091.27 
229.32512822306       413300 
233.93456330034      1055490 
238.63664802268      1464870 
245.86757709442      2073610 
250.80951539401      3165090 
255.85078665343      4239900 
258.40929451997      5910650 
263.60332133982     11622000 
266.23935455322     17050800 
271.59076557974     20724600 
277.04973996789     21501100 
282.61843974125     39143300 
288.29907038004     51367000 
294.09388169468     58236500 
300.00516871675    119812000 
306.03527260795    455346000 
315.30844740325    491348000 
324.86260866801    714702000 
334.70627057326   1018330000 
344.8482052779   1352890000 
355.29745074603   2961250000 
362.43892950602   6202350000 
373.42119150899   7448340000 
384.7362270329   7948880000 
392.46942519626  13362900000 
404.36164124913  17979000000 
412.48931023824  16776300000 
420.78034537403  17125500000 
429.23803031605  16057600000 
437.8657147254  18232400000 
446.66681559138  18667900000 
455.64481858477  16023800000 
469.4513122327  16984900000 
478.88728360858  19251800000 
488.51291800911  15969900000 
498.3320276611  19412200000 
503.31534793771  19229700000 
508.34850141708  66694800000 
518.56630629557  61561500000 
528.98948905211  54707000000 
539.62217778206  48064200000 
545.01839955988  48940200000 
555.97326939103  64459900000 
567.14833210579  69431300000 
578.54801358112  65131700000 
584.33349371693  66121900000 
596.07859694064  51660200000 
608.05977673914  57252600000 
614.14037450653  69921500000 
626.48459603412  66100000000 
639.0769364144  68856300000 
645.46770577855  65216000000 
651.92238283633  54346700000 
658.44160666469  64041400000 
671.67628295866  70058500000 
678.39304578824  55577600000 
692.02874600859  68052000000 
698.94903346867  54607200000 
712.99790904139  69746400000 
720.12788813181  68377000000 
734.60245868325  68551100000 
741.94848327009  63124900000 
749.36796810279  62354100000 
764.43026426165  59660200000 
772.07456690427  61811800000 
779.79531257331  59754600000 
787.59326569905  61711100000 
803.4238903396  59385000000 
811.45812924299  58940700000 
819.57271053542  60116500000 
827.76843764078  49914800000 
844.40658323736  56845100000 
852.85064906973  55162700000 
861.37915556043  56477300000 
869.99294711603  55887600000 
878.69287658719  55252300000 
887.47980535306  54664200000 
896.3546034066  52625600000 
914.37133093507  43852700000 
923.51504424442  78650600000 
932.75019468686 113546000000 
942.07769663373 145103000000 
951.49847360007 161411000000 
961.01345833607 187126000000 
970.62359291943 105522000000 
980.32982884862 159863000000 
990.13312713711 139227000000 
1000.0344584085 141878000000 
1010.0348029926 147642000000 
1020.1351510225 116193000000 
1030.3365025327 146416000000 
1040.639867558 159379000000 
1051.0462662336 152347000000 
1061.556728896 136260000000 
1072.1722961849 138444000000 
1082.8940191468 124566000000 
1093.7229593382 132704000000 
1104.6601889316 125438000000 
1115.7067908209 109891000000 
1126.8638587291 119027000000 
1138.1324973164 116327000000 
1149.5138222896 107953000000 
1161.0089605125 102469000000 
1172.6190501176  78272500000 
1184.3452406188  92695400000 
1196.188693025  87878800000 
1208.1505799552  68061300000 
1220.2320857548  82479500000 
1232.4344066123  86358500000 
1244.7587506785  83743000000 
1257.2063381852  84684200000 
1269.7784015671  86244000000 
1282.4761855828  83744600000 
1295.3009474386  80142900000 
1308.253956913  82242400000 
1321.3364964821  79696800000 
1334.5498614469  77109450000 
1347.8953600614  73951900000 
1361.374313662  71414500000 
1374.9880567986  68005700000 
1388.7379373666  60231600000 
1402.6253167403  61491500000 
1416.6515699077  57635100000 
1430.8180856068 60222311764.706 
1445.1262664628 57361361538.462 
1459.5775291275  55592600000 
1474.1733044187  55220850000 
1488.9150374629  53385500000 
1503.8041878376 52219195454.545 
1518.8422297159  50045600000 
1534.0306520131  40786300000 
1549.3709585332  37615000000 
1564.8646681186  42265650000 
1580.5133147997  42653700000 
1596.3184479477  40025900000 
1612.2816324272  38640100000 
1628.4044487515  38597100000 
1644.688493239  38218300000 
1661.1353781714 37343681818.182 
1677.7467319531  38171700000 
1694.5241992726  36729800000 
1711.4694412654  34194800000 
1728.584135678  34368350000 
1745.8699770348  33352500000 
1763.3286768051  32291550000 
1780.9619635732  31550300000 
1798.7715832089  30400000000 
1816.759299041  29338700000 
1834.9268920314  28901450000 
1853.2761609517  28313500000 
1871.8089225613  26935550000 
1890.5270117869  26471200000 
1909.4322819047  25127750000 
1928.5266047238  25257450000 
1947.811870771  23803300000 
1967.2899894787 23793805882.353 
1986.9628893735 23017738095.238 
2006.8325182673  22619800000 
2026.9008434499  21685750000 
2047.1698518844  15969900000 
2067.6415504033  16147780000 
2088.3179659073  18689200000 
2109.2011455664  19261300000 
2130.293157022  18724000000 
2151.5960885923  17978400000 
2173.1120494782  17640600000 
2194.843169973  17172500000 
2216.7916016727  16739250000 
2238.9595176894  15878650000 
2261.3491128663  15778200000 
2283.962603995 14640333333.333 
2306.8022300349  14501200000 
2329.8702523353  14129950000 
2353.1689548586 13435033333.333 
2376.7006444072  12535350000 
2400.4676508513  12566450000 
2424.4723273598  12229400000 
2448.7170506334  11787500000 
2473.2042211397 10769116666.667 
2497.9362633511 10537656521.739 
2522.9156259846 10608259259.259 
2548.1447822445  10264650000 
2573.6262300669 9903233333.3333 
2599.3624923676 9536586666.6667 
2625.3561172913   9247190000 
2651.6096784642   8883320000 
2678.1257752488   8606490000 
2704.9070330013   8349060000 
2731.9561033313 7975186666.6667 
2759.2756643647 7745576666.6667 
2786.8684210083   7428855000 
2814.7371052184 7270256666.6667 
2842.8844762706 7012786666.6667 
2871.3133210333 6748976666.6667 
2900.0264542436   6518870000 
2929.026718786   6313360000 
2958.3169859739   6074040000 
2987.9001558336   5816720000 
3017.779157392   5580640000 
3047.9569489659   5433440000 
3078.4365184556   5249640000 
3109.2208836401   5087400000 
3140.3130924765   4866215000 
3171.7162234013   4702420000 
3203.4333856353   4516970000 
3235.4677194916   4415550000 
3267.8223966866   4242695000 
3300.5006206534   4066805000 
3333.50562686   3909800000 
3366.8406831286   3810840000 
3400.5090899598   3662340000 
3434.5141808594   3527540000 
3468.859322668   3439925000 
3503.5479158947   3305050000 
3538.5833950537   3172295000 
3573.9692290042   3070410000 
3609.7089212942   2956752000 
3645.8060105072   2637530000 
3682.2640706123   2538855000 
3719.0867113184   2480555000 
3756.2775784316   2454665000 
3793.8403542159   2418015000 
3831.778757758   2472265000 
3870.0965453356   2159110000 
3908.797510789   2393370000 
3947.8854858969   2145985000 
3987.3643407558   2224750000 
4027.2379841634   2131460000 
4067.510364005   2010995000 
4108.1854676451   1881445000 
4149.2673223215   1915470000 
4190.7599955447   1832570000 
4232.6675955002   1771905000 
4274.9942714552   1702490000 
4317.7442141697   1521655000 
4360.9216563114   1580040000 
4404.5308728746   1539100000 
4448.5761816033 1470686666.6667 
4493.0619434193   1411465000 
4537.9925628535   1361165000 
4583.3724884821   1327190000 
4629.2062133669 1253703333.3333 
4675.4982755006   1204930000 
4722.2532582556   1196490000 
4769.4757908381   1150470000 
4817.1705487465   1077625000 
4865.342254234 1020366333.3333 
4913.9956767763   1014360000 
4963.1356335441 982353666.66667 
5012.7669898795    946116500 
5062.8946597783 914392666.66667 
5113.5236063761    880432000 
5164.6588424398 848864333.33333 
5216.3054308642    817823500 
5268.4684851729 789100666.66667 
5321.1531700246 756736333.33333 
5374.3647017249    723135500 
5428.1083487421    705101000 
5482.3894322295 676124666.66667 
5537.2133265518    648299000 
5592.5854598173    627340000 
5648.5113144155 603245333.33333 
5704.9964275597    555976000 
5762.0463918353    534631000 
5819.6668557536 513119666.66667 
5877.8635243112    500747000 
5936.6421595543    488381000 
5996.0085811498    476208000 
6055.9686669613    461090000 
6116.5283536309 444202333.33333 
6177.6936371672 428411333.33333 
6239.4705735389    412988000 
6301.8652792743 397845666.66667 
6364.883932067 383677333.33333 
6428.5327713877    368080750 
6492.8180991016 348810666.66667 
6557.7462800926    328349000 
6623.3237428935 328349666.66667 
6689.5569803225    314839000 
6756.4525501257 304054666.66667 
6824.0170756269    291663000 
6892.2572463832 281006666.66667 
6961.179818847    270259000 
7030.7916170355 259234333.33333 
7101.0995332059    250192750 
7172.1105285379 240833666.66667 
7243.8316338233    232173750 
7316.2699501615 224026666.66667 
7389.4326496631    215953000 
7463.3269761598    206977500 
7537.9602459214    198160750 
7613.3398483806 191858333.33333 
7689.4732468644    184938250 
7766.367979333    178031250 
7844.0316591264    171027250 
7922.4719757176    164593750 
8001.6966954748    158338500 
8081.7136624296    152346500 
8162.5307990539    144522500 
8244.1561070444    137792000 
8326.5976681148    132778500 
8409.863644796    127692200 
8493.9622812439    122756750 
8578.9019040564    118678500 
8664.6909230969    114088600 
8751.3378323279    111182750 
8838.8512106512    105948250 
8927.2397227577    102944420 
9016.5121199853     99290225 
9106.6772411851     97053740 
9197.744013597     89685850 
9289.721453733     89695100 
9382.6186682703     86439820 
9476.444854953     79879760 
9571.2093035025     79738775 
9666.9213965375     76939340 
9763.5906105029     74170160 
9861.226516608     71281360 
9959.838781774 67609833.333333 
10059.437169592     64118900 
10160.031541288     63698100 
10261.631856701     61219300 
10364.248175268     58992100 
10467.89065702     56872150 
10572.56956359     54286200 
10678.295259226     51863200 
10785.078211819     49734950 
10892.928993937     46168200 
11001.858283876     46448200 
11111.876866715     44940400 
11222.995635382     43013400 
11335.225591736     41192050 
11448.577847653     39807950 
11563.06362613 38002666.666667 
11678.694262391     36584750 
11795.481205015     35376850 
11913.436017065 33859166.666667 
12032.570377236     32584450 
12152.896081008     31560050 
12274.425041818     30322300 
12397.169292236     29139850 
12521.140985159     28003100 
12646.35239501     26935250 
12772.81591896 25154666.666667 
12900.54407815 24732066.666667 
13029.549518932     23850000 
13159.845014121 22975733.333333 
13291.443464262     22136450 
13424.357898905 21336333.333333 
13558.601477894     20428800 
13694.187492673 19564066.666667 
13831.129367599     18879250 
13969.440661275     18225900 
14109.135067888 17477566.666667 
14250.226418567 16766533.333333 
14392.728682753 16092133.333333 
14536.65596958 15449743.333333 
14682.022529276 14811533.333333 
14828.842754569 14262766.666667 
14977.131182115     13706700 
15126.902493936 13186333.333333 
15278.171518875 12684466.666667 
15430.953234064 12205333.333333 
15585.262766404 11745566.666667 
15741.115394068 11306466.666667 
15898.526548009 10851671.428571 
16057.511813489     10402200 
16218.086931624     10066125 
16380.26780094      9632720 
16544.07047895      9402765 
16709.511183739      8853470 
16876.606295577      8652670 
17045.372358532      8346345 
17215.826082118      7873435 
17387.984342939      7611805 
17561.864186368      7378070 
17737.482828232      7134600 
17914.857656514      6821520 
18094.006233079      6404335 
18274.94629541      6256115 
18457.695758364      6053800 
18642.272715948      5713745 
18828.695443107      5620255 
19016.982397539      5387225 
19207.152221514      5167555 
19399.223743729      4859710 
19593.215981166      4771780 
19789.148140978      4583915 
19987.039622388      4405720 
20186.910018612      4235830 
20388.779118798      4071600 
20592.666909986      3919785 
20798.593579086      3772930 
21006.579514877      3628610 
21216.645310025      3499145 
21428.811763126      3366440 
21643.099880757 3166816.6666667 
21859.530879564      3077070 
22078.12618836      2968220 
22298.907450244      2864360 
22521.896524746      2764835 
22747.115489993 2649896.6666667 
22974.586644893      2538660 
23204.332511342      2453450 
23436.375836456      2351500 
23670.73959482      2254505 
23907.446990769      2180590 
24146.521460676 2092396.6666667 
24387.986675283      2008860 
24631.866542036 1928296.6666667 
24878.185207456      1852780 
25126.967059531      1780170 
25378.236730126      1712210 
25632.019097427 1645686.6666667 
25888.339288402      1582680 
26147.222681286 1493993.3333333 
26408.694908098      1456690 
26672.781857179      1397445 
26939.509675751      1354020 
27208.904772509      1294900 
27480.993820234 1232746.6666667 
27755.803758436      1196750 
28033.361796021 1154993.3333333 
28313.695413981 1106796.6666667 
28596.832368121      1051460 
28882.800691802 1018713.3333333 
29171.62869872       977789 
29463.344985707       938902 
29757.978435564 901915.66666667 
30055.55821992 859972.66666667 
30356.113802119 828756.33333333 
30659.67494014       801312 
30966.271689541       770990 
31275.934406437 742042.33333333 
31588.693750501 714430.33333333 
31904.580688006     688940.2 
32223.626494886     658898.5 
32545.862759835       634772 
32871.321387434       603695 
33200.034601308       583912 
33532.034947321       563493 
33867.355296794     543928.5 
34206.028849762       519080 
34548.08913826       501322 
34893.570029642       484394 
35242.505729939     462897.5 
35594.930787238     442556.5 
35950.880095111       423313 
36310.388896062       409546 
36673.492785022     396366.5 
37040.227712872       376697 
37410.629990001     360113.5 
37784.736289901       348597 
38162.5836528       334294 
38544.209489328     320716.5 
38929.651584221     307609.5 
39318.948100064       295565 
39712.137581064       283644 
40109.258956875     268524.5 
40510.351546444       262115 
40915.455061908       252146 
41324.609612527       241880 
41737.855708653       233404 
42155.234265739     224788.5 
42576.786608396       216421 
43002.55447448     208595.5 
43432.580019225       200152 
43866.905819417 191814.33333333 
44305.574877612     183618.5 
44748.630626388       177208 
45196.116932652       171033 
45648.078101978 163689.33333333 
46104.558882998       153925 
46565.604471828       149678 
47031.260516546 145118.66666667 
47501.573121712     139118.5 
47976.588852929       134546 
48456.354741458       129099 
48940.918288873     123906.5 
49430.327471761 118988.66666667 
49924.630746479     114296.5 
50423.877053944 109845.66666667 
50928.115824483     104262.5 
51437.396982728 101455.06666667 
51951.770952555      97708.5 
52471.288662081      94046.2 
52996.001548702 89867.266666667 
53525.961564189     86554.85 
54061.221179831 83403.766666667 
54601.833391629 79802.666666667 
55147.851725545      76944.4 
55699.330242801 74222.233333333 
56256.323545229      71106.5 
56818.886780681 68132.766666667 
57387.075648488 65349.466666667 
57960.946404973      62695.5 
58540.555869022 59487.333333333 
59125.961427713 57572.733333333 
59717.22104199      55495.3 
60314.39325241      53323.5 
60917.537184934      51256.7 
61526.712556783 49288.166666667 
62141.979682351      47389.4 
62763.399479174      45490.5 
63391.033473966      43922.9 
64024.943808706 41961.014285714 
64665.193246793      40493.3 
65311.845179261     39028.05 
65964.963631053      37171.3 
66624.613267364      35846.8 
67290.859400038     34429.65 
67963.767994038      32986.9 
68643.405673978        31847 
69329.839730718     30759.35 
70023.138128025      29377.5 
70723.369509305     28071.45 
71430.603204399      27137.2 
72144.909236443      26245.8 
72866.358328807     25110.25 
73595.021912095     24012.05 
74330.972131216     22364.95 
75074.281852528     22005.75 
75825.024671053      21360.3 
76583.274917764      20698.3 
77349.107666942      19852.3 
78122.598743611     19049.85 
78903.824731047     18286.75 
79692.862978358      17561.7 
80489.791608141     16872.05 
81294.689524223     16210.65 
82107.636419465     15591.15 
82928.712783659      14996.1 
83757.999911496      14429.4 
84595.579910611 13758.933333333 
85441.535709717      13124.4 
86295.951066814      12619.8 
87158.910577482     12055.05 
88030.499683257      11747.2 
88910.80468009      11328.6 
89799.912726891 10831.933333333 
90697.91185416     10360.45 
91604.890972701     10002.13 
92520.939882428      9576.41 
93446.149281253      9136.88 
94380.610774065     8863.485 
95324.416881806      8497.37 
96277.661050624      8148.39 
97240.43766113      7818.42 
98212.842037741      7503.61 
99194.970458119      7263.55 
100186.9201627      7089.55 
199060.83304441      435.086 
399467.9878358      26.3311 
594753.39981818      5.09746 
793700.71765891      1.58921 
997811.18987739     0.643493 
1193529.3359837     0.307455 
1399507.0114645     0.164656 
