#  WAVELENGTH	        FLUX	
#  (ANGSTROM)	(ERG/CM2/S/A)	
############	############	
478.88728360858  6.55664E-25 
488.51291800911  3.01744E-24 
498.3320276611  1.30087E-23 
503.31534793771   4.0397E-23 
508.34850141708  1.03484E-22 
518.56630629557  3.00953E-22 
528.98948905211  1.09631E-21 
539.62217778206  3.73913E-21 
545.01839955988  1.23076E-20 
555.97326939103   3.8496E-20 
567.14833210579  1.15371E-19 
578.54801358112  3.28429E-19 
584.33349371693   9.1952E-19 
596.07859694064  2.45513E-18 
608.05977673914  6.33728E-18 
614.14037450653   1.5816E-17 
626.48459603412  3.82643E-17 
639.0769364144  8.99057E-17 
645.46770577855  2.05343E-16 
651.92238283633  3.89865E-16 
658.44160666469  6.73229E-16 
671.67628295866  1.44077E-15 
678.39304578824  3.01127E-15 
692.02874600859  6.14593E-15 
698.94903346867  1.22268E-14 
712.99790904139  2.56201E-14 
720.12788813181  4.89915E-14 
734.60245868325  8.63678E-14 
741.94848327009  1.59312E-13 
749.36796810279  2.88748E-13 
764.43026426165  5.15052E-13 
772.07456690427  9.02459E-13 
779.79531257331  1.55888E-12 
787.59326569905  2.62717E-12 
803.4238903396  4.42332E-12 
811.45812924299  7.33241E-12 
819.57271053542  1.19579E-11 
827.76843764078  1.92508E-11 
844.40658323736  3.06037E-11 
852.85064906973  4.80843E-11 
861.37915556043  7.46438E-11 
869.99294711603  1.14359E-10 
878.69287658719  1.74021E-10 
887.47980535306  2.61615E-10 
896.3546034066   3.8914E-10 
914.37133093507   4.07814E-7 
923.51504424442   1.52493E-6 
932.75019468686   2.17293E-6 
942.07769663373   3.28968E-6 
951.49847360007   4.95395E-6 
961.01345833607   7.31958E-6 
970.62359291943   1.01738E-5 
980.32982884862   1.43241E-5 
990.13312713711   2.00488E-5 
1000.0344584085   2.95293E-5 
1010.0348029926   4.06962E-5 
1020.1351510225   5.41308E-5 
1030.3365025327   7.83511E-5 
1040.639867558    0.0001076 
1051.0462662336  0.000143381 
1061.556728896   0.00019321 
1072.1722961849  0.000261433 
1082.8940191468  0.000350032 
1093.7229593382  0.000452789 
1104.6601889316  0.001684795 
1115.7067908209   0.00326717 
1126.8638587291   0.00477354 
1138.1324973164   0.00627268 
1149.5138222896   0.00754772 
1161.0089605125    0.0102866 
1172.6190501176    0.0131346 
1184.3452406188    0.0148261 
1196.188693025    0.0163592 
1208.1505799552   0.00701667 
1220.2320857548    0.0224111 
1232.4344066123    0.0383713 
1244.7587506785   0.05506005 
1257.2063381852    0.0673358 
1269.7784015671    0.0819078 
1282.4761855828   0.10308415 
1295.3009474386     0.123158 
1308.253956913     0.154607 
1321.3364964821     0.165494 
1334.5498614469     0.208783 
1347.8953600614     0.272305 
1361.374313662     0.295747 
1374.9880567986     0.358456 
1388.7379373666     0.435344 
1402.6253167403     0.577099 
1416.6515699077     0.715752 
1430.8180856068 0.93833058823529 
1445.1262664628 1.1148861538462 
1459.5775291275      1.44375 
1474.1733044187      1.64506 
1488.9150374629      2.30772 
1503.8041878376 2.6255809090909 
1518.8422297159      3.38334 
1534.0306520131     11.29765 
1549.3709585332      20.0064 
1564.8646681186      27.5352 
1580.5133147997      47.1959 
1596.3184479477      55.6682 
1612.2816324272      65.0831 
1628.4044487515      80.4793 
1644.688493239     95.56145 
1661.1353781714 140.67928636364 
1677.7467319531      303.684 
1694.5241992726      551.888 
1711.4694412654     662.7225 
1728.584135678     1045.904 
1745.8699770348      1612.59 
1763.3286768051     1569.905 
1780.9619635732     2300.705 
1798.7715832089      2679.55 
1816.759299041       3257.6 
1834.9268920314      3113.51 
1853.2761609517     4133.495 
1871.8089225613      5064.99 
1890.5270117869     6652.845 
1909.4322819047      7517.52 
1928.5266047238     7619.135 
1947.811870771 11841.554545455 
1967.2899894787 13273.341176471 
1986.9628893735 14880.533333333 
2006.8325182673      15352.9 
2026.9008434499      20072.1 
2047.1698518844     22459.85 
2067.6415504033     26614.22 
2088.3179659073     59636.05 
2109.2011455664     97515.05 
2130.293157022     114409.7 
2151.5960885923       119808 
2173.1120494782       137784 
2194.843169973       139167 
2216.7916016727     181918.5 
2238.9595176894       177758 
2261.3491128663     134980.5 
2283.962603995       200055 
2306.8022300349     179250.5 
2329.8702523353     121117.1 
2353.1689548586 150762.33333333 
2376.7006444072    103869.75 
2400.4676508513       126873 
2424.4723273598 258656.66666667 
2448.7170506334       296627 
2473.2042211397       166823 
2497.9362633511 176291.30434783 
2522.9156259846 134367.61481481 
2548.1447822445     362077.5 
2573.6262300669 468263.66666667 
2599.3624923676 363947.66666667 
2625.3561172913    1133770.5 
2651.6096784642      1436790 
2678.1257752488      1301275 
2704.9070330013 961971.33333333 
2731.9561033313 641997.66666667 
2759.2756643647 790915.33333333 
2786.8684210083       237294 
2814.7371052184 1098311.3333333 
2842.8844762706 608739.66666667 
2871.3133210333 1726303.3333333 
2900.0264542436      2793900 
2929.026718786      2398090 
2958.3169859739      2471130 
2987.9001558336      2422265 
3017.779157392      2714980 
3047.9569489659      2923825 
3078.4365184556      2840840 
3109.2208836401      3213955 
3140.3130924765      3150955 
3171.7162234013      2874430 
3203.4333856353      2866585 
3235.4677194916      3671530 
3267.8223966866      4321630 
3300.5006206534      4018945 
3333.50562686      3913490 
3366.8406831286      3190460 
3400.5090899598      3559765 
3434.5141808594      3854820 
3468.859322668      4212770 
3503.5479158947      4416575 
3538.5833950537      4143525 
3573.9692290042      3496900 
3609.7089212942      4243540 
3645.8060105072 5148046.6666667 
3682.2640706123      5050450 
3719.0867113184      3872915 
3756.2775784316      5055520 
3793.8403542159      3833665 
3831.778757758      3704625 
3870.0965453356      4695650 
3908.797510789      4277750 
3947.8854858969      4184595 
3987.3643407558      7201525 
4027.2379841634      7202530 
4067.510364005      7353265 
4108.1854676451      7615265 
4149.2673223215      7469720 
4190.7599955447      7318295 
4232.6675955002      7088535 
4274.9942714552      5687315 
4317.7442141697      7399055 
4360.9216563114      7657615 
4404.5308728746      8086095 
4448.5761816033 8646763.3333333 
4493.0619434193      9345520 
4537.9925628535      9440255 
4583.3724884821      9275215 
4629.2062133669 9354223.3333333 
4675.4982755006      9141120 
4722.2532582556      9535665 
4769.4757908381 9585826.6666667 
4817.1705487465      9324370 
4865.342254234 8729006.6666667 
4913.9956767763      9118440 
4963.1356335441      8767960 
5012.7669898795      8796105 
5062.8946597783      8957390 
5113.5236063761      8507765 
5164.6588424398 7789046.6666667 
5216.3054308642      8713960 
5268.4684851729 8546263.3333333 
5321.1531700246 8574723.3333333 
5374.3647017249      8506685 
5428.1083487421 8714006.6666667 
5482.3894322295 8587213.3333333 
5537.2133265518 8517053.3333333 
5592.5854598173      8595530 
5648.5113144155 8466196.6666667 
5704.9964275597 8568516.6666667 
5762.0463918353 8503033.3333333 
5819.6668557536      8539460 
5877.8635243112      8144120 
5936.6421595543 8323706.6666667 
5996.0085811498      8176940 
6055.9686669613 8053206.6666667 
6116.5283536309 7591553.3333333 
6177.6936371672      7800660 
6239.4705735389      7638500 
6301.8652792743 7520953.3333333 
6364.883932067 7469826.6666667 
6428.5327713877    7318237.5 
6492.8180991016 7267926.6666667 
6557.7462800926      6945490 
6623.3237428935      7134700 
6689.5569803225    7052707.5 
6756.4525501257 6920916.6666667 
6824.0170756269    6814807.5 
6892.2572463832 6706986.6666667 
6961.179818847    6551162.5 
7030.7916170355 6473356.6666667 
7101.0995332059      6317900 
7172.1105285379 6147753.3333333 
7243.8316338233    6113477.5 
7316.2699501615 6057976.6666667 
7389.4326496631    5860847.5 
7463.3269761598      5857790 
7537.9602459214    5760707.5 
7613.3398483806 5646873.3333333 
7689.4732468644    5552972.5 
7766.367979333      5500095 
7844.0316591264    5390162.5 
7922.4719757176    5237022.5 
8001.6966954748      5163685 
8081.7136624296    5074357.5 
8162.5307990539    4917767.5 
8244.1561070444    4887187.5 
8326.5976681148      4760135 
8409.863644796      4669050 
8493.9622812439      4325910 
8578.9019040564    4494022.5 
8664.6909230969      4251658 
8751.3378323279      4319890 
8838.8512106512      4251790 
8927.2397227577      4149092 
9016.5121199853    4086772.5 
9106.6772411851      4021254 
9197.744013597    3831482.5 
9289.721453733      3865894 
9382.6186682703      3727968 
9476.444854953      3661022 
9571.2093035025    3615557.5 
9666.9213965375      3551646 
9763.5906105029      3491304 
9861.226516608      3426164 
9959.838781774 3368148.6666667 
10059.437169592      3274990 
10160.031541288      3215590 
10261.631856701      3168430 
10364.248175268      3100785 
10467.89065702      3031635 
10572.56956359 2935516.6666667 
10678.295259226      2856315 
10785.078211819      2761800 
10892.928993937      2672605 
11001.858283876      2668210 
11111.876866715      2621520 
11222.995635382 2555036.6666667 
11335.225591736      2486540 
11448.577847653      2480305 
11563.06362613 2395613.3333333 
11678.694262391      2356600 
11795.481205015      2287300 
11913.436017065      2247230 
12032.570377236      2195065 
12152.896081008      2191315 
12274.425041818 2134806.6666667 
12397.169292236      2089585 
12521.140985159      2041860 
12646.35239501      1996025 
12772.81591896 1914616.6666667 
12900.54407815      1901010 
13029.549518932      1860080 
13159.845014121 1816243.3333333 
13291.443464262      1783310 
13424.357898905 1755653.3333333 
13558.601477894 1698086.6666667 
13694.187492673      1662850 
13831.129367599      1634805 
13969.440661275 1595806.6666667 
14109.135067888 1543806.6666667 
14250.226418567 1505726.6666667 
14392.728682753      1458720 
14536.65596958 1437619.3333333 
14682.022529276 1391233.3333333 
14828.842754569 1362136.6666667 
14977.131182115 1316773.3333333 
15126.902493936      1310960 
15278.171518875      1281750 
15430.953234064 1245793.3333333 
15585.262766404 1217036.6666667 
15741.115394068 1152143.3333333 
15898.526548009 1144841.4285714 
16057.511813489      1109350 
16218.086931624      1092285 
16380.26780094      1047400 
16544.07047895      1040525 
16709.511183739       976514 
16876.606295577       976658 
17045.372358532       935873 
17215.826082118     875578.5 
17387.984342939       858901 
17561.864186368       838663 
17737.482828232     815035.5 
17914.857656514     784144.5 
18094.006233079     734701.5 
18274.94629541       718576 
18457.695758364       701233 
18642.272715948       657740 
18828.695443107     644690.5 
19016.982397539       631603 
19207.152221514       604395 
19399.223743729       570046 
19593.215981166     561202.5 
19789.148140978     543769.5 
19987.039622388     529100.5 
20186.910018612       504447 
20388.779118798     492095.5 
20592.666909986       472188 
20798.593579086     454996.5 
21006.579514877       442164 
21216.645310025     426708.5 
21428.811763126       413327 
21643.099880757 387483.66666667 
21859.530879564     378516.5 
22078.12618836     367536.5 
22298.907450244     355189.5 
22521.896524746     342535.5 
22747.115489993 328128.66666667 
22974.586644893       315894 
23204.332511342       302257 
23436.375836456 291833.66666667 
23670.73959482     277615.5 
23907.446990769       272545 
24146.521460676       259989 
24387.986675283       249225 
24631.866542036 240974.33333333 
24878.185207456       233626 
25126.967059531 225246.66666667 
25378.236730126       216100 
25632.019097427 208810.33333333 
25888.339288402     202635.5 
26147.222681286 192498.33333333 
26408.694908098       186188 
26672.781857179       181522 
26939.509675751       175716 
27208.904772509       168824 
27480.993820234       161258 
27755.803758436     156802.5 
28033.361796021 151835.66666667 
28313.695413981       145889 
28596.832368121 139504.66666667 
28882.800691802       135001 
29171.62869872 129507.66666667 
29463.344985707 125001.33333333 
29757.978435564 120170.66666667 
30055.55821992 115312.33333333 
30356.113802119 111242.66666667 
30659.67494014       107403 
30966.271689541 103375.66666667 
31275.934406437      99874.6 
31588.693750501      96325.9 
31904.580688006     93153.34 
32223.626494886      89216.3 
32545.862759835      86081.8 
32871.321387434      82548.3 
33200.034601308     79271.75 
33532.034947321      76617.4 
33867.355296794      73890.6 
34206.028849762     71013.15 
34548.08913826      68676.2 
34893.570029642      66515.7 
35242.505729939      63625.7 
35594.930787238     60893.85 
35950.880095111     58526.05 
36310.388896062        56352 
36673.492785022     54493.15 
37040.227712872      52167.8 
37410.629990001     49897.65 
37784.736289901     48297.45 
38162.5836528     46605.25 
38544.209489328     44656.05 
38929.651584221     43078.55 
39318.948100064     41294.45 
39712.137581064      39581.6 
40109.258956875     38098.95 
40510.351546444      36815.7 
40915.455061908     35570.55 
41324.609612527     34208.25 
41737.855708653      32895.2 
42155.234265739      31859.1 
42576.786608396      30482.7 
43002.55447448      28975.3 
43432.580019225      27484.6 
43866.905819417 26146.066666667 
44305.574877612     24852.15 
44748.630626388     24113.45 
45196.116932652      23036.3 
45648.078101978      22162.2 
46104.558882998     21234.15 
46565.604471828      20671.9 
47031.260516546 19943.333333333 
47501.573121712      19168.1 
47976.588852929     18597.15 
48456.354741458 17906.233333333 
48940.918288873      17242.2 
49430.327471761      16604.5 
49924.630746479      15993.1 
50423.877053944      15409.2 
50928.115824483     14828.45 
51437.396982728      14353.8 
51951.770952555     13801.55 
52471.288662081 13358.966666667 
52996.001548702 12795.833333333 
53525.961564189      12356.2 
54061.221179831 11929.933333333 
54601.833391629 11449.433333333 
55147.851725545     11083.85 
55699.330242801 10714.966666667 
56256.323545229      10304.4 
56818.886780681 9899.8666666667 
57387.075648488 9527.3866666667 
57960.946404973 9164.1766666667 
58540.555869022 8798.3433333333 
59125.961427713 8478.9433333333 
59717.22104199 8173.1633333333 
60314.39325241 7863.0266666667 
60917.537184934      7570.84 
61526.712556783      7309.95 
62141.979682351 7027.9233333333 
62763.399479174      6783.91 
63391.033473966 6546.6066666667 
64024.943808706 6264.5742857143 
64665.193246793      6049.27 
65311.845179261     5848.695 
65964.963631053     5579.435 
66624.613267364      5386.01 
67290.859400038     5201.085 
67963.767994038     4970.995 
68643.405673978      4804.29 
69329.839730718      4644.82 
70023.138128025      4439.82 
70723.369509305     4251.355 
71430.603204399      4113.45 
72144.909236443     3980.985 
72866.358328807     3813.855 
73595.021912095     3654.845 
74330.972131216     3494.935 
75074.281852528     3361.245 
75825.024671053      3259.31 
76583.274917764      3159.92 
77349.107666942     3035.355 
78122.598743611     2915.815 
78903.824731047      2801.71 
79692.862978358     2692.565 
80489.791608141      2588.92 
81294.689524223      2489.49 
82107.636419465      2397.97 
82928.712783659      2307.61 
83757.999911496      2222.85 
84595.579910611      2122.54 
85441.535709717     2026.885 
86295.951066814      1954.82 
87158.910577482     1885.105 
88030.499683257     1817.825 
88910.80468009     1754.865 
89799.912726891      1679.65 
90697.91185416     1607.625 
91604.890972701      1554.57 
92520.939882428 1489.9166666667 
93446.149281253     1428.385 
94380.610774065      1381.41 
95324.416881806 1325.3366666667 
96277.661050624     1272.325 
97240.43766113 1220.9933333333 
98212.842037741      1173.86 
99194.970458119     1136.775 
100186.9201627      1110.45 
199060.83304441      71.7077 
399467.9878358      4.48945 
594753.39981818     0.880985 
793700.71765891     0.276826 
997811.18987739      0.11268 
1193529.3359837    0.0540373 
1399507.0114645    0.0290217 
