#  WAVELENGTH	        FLUX	
#  (ANGSTROM)	(ERG/CM2/S/A)	
############	############	
437.8657147254   1.5781E-24 
446.66681559138  8.22394E-24 
455.64481858477  3.40606E-23 
469.4513122327  1.54449E-22 
478.88728360858  6.55044E-22 
488.51291800911  2.61091E-21 
498.3320276611  9.80417E-21 
503.31534793771  2.80213E-20 
508.34850141708    6.658E-20 
518.56630629557  1.74934E-19 
528.98948905211    5.637E-19 
539.62217778206  1.70523E-18 
545.01839955988  5.01493E-18 
555.97326939103  1.40625E-17 
567.14833210579  3.79097E-17 
578.54801358112  9.73765E-17 
584.33349371693   2.4698E-16 
596.07859694064  5.99189E-16 
608.05977673914  1.41094E-15 
614.14037450653  3.21986E-15 
626.48459603412  7.14345E-15 
639.0769364144  1.54252E-14 
645.46770577855  3.24933E-14 
651.92238283633    5.791E-14 
658.44160666469  9.46544E-14 
671.67628295866  1.87933E-13 
678.39304578824  3.65021E-13 
692.02874600859  6.94232E-13 
698.94903346867  1.28696E-12 
712.99790904139  2.50866E-12 
720.12788813181  4.49494E-12 
734.60245868325  7.48405E-12 
741.94848327009  1.29712E-11 
749.36796810279  2.21382E-11 
764.43026426165  3.72162E-11 
772.07456690427  6.16361E-11 
779.79531257331  1.00751E-10 
787.59326569905  1.60491E-10 
803.4238903396  2.56411E-10 
811.45812924299  4.04225E-10 
819.57271053542  6.26902E-10 
827.76843764078  9.60811E-10 
844.40658323736   1.45606E-9 
852.85064906973   2.18269E-9 
861.37915556043    3.2374E-9 
869.99294711603   4.73273E-9 
878.69287658719   6.90812E-9 
887.47980535306   9.95128E-9 
896.3546034066   1.41194E-8 
914.37133093507   1.36261E-5 
923.51504424442   4.61872E-5 
932.75019468686   6.57601E-5 
942.07769663373   9.60022E-5 
951.49847360007  0.000139572 
961.01345833607  0.000196908 
970.62359291943  0.000273204 
980.32982884862  0.000375517 
990.13312713711  0.000509599 
1000.0344584085   0.00072047 
1010.0348029926  0.000976835 
1020.1351510225   0.00128554 
1030.3365025327   0.00175236 
1040.639867558   0.00233912 
1051.0462662336   0.00309782 
1061.556728896   0.00404156 
1072.1722961849   0.00531439 
1082.8940191468   0.00693378 
1093.7229593382   0.00890279 
1104.6601889316    0.0757471 
1115.7067908209     0.186001 
1126.8638587291     0.271687 
1138.1324973164     0.361466 
1149.5138222896     0.412757 
1161.0089605125     0.594369 
1172.6190501176     0.717101 
1184.3452406188    0.5877705 
1196.188693025     0.404822 
1208.1505799552     0.125989 
1220.2320857548     0.521051 
1232.4344066123      1.29492 
1244.7587506785     5.743815 
1257.2063381852      8.16683 
1269.7784015671      17.2319 
1282.4761855828      36.2254 
1295.3009474386      27.1516 
1308.253956913      63.4781 
1321.3364964821       85.392 
1334.5498614469     119.2732 
1347.8953600614      151.685 
1361.374313662      174.923 
1374.9880567986     213.2665 
1388.7379373666      282.757 
1402.6253167403      337.821 
1416.6515699077      412.754 
1430.8180856068      469.277 
1445.1262664628 648.81715384615 
1459.5775291275      719.574 
1474.1733044187     905.2145 
1488.9150374629      1215.69 
1503.8041878376 1355.8131818182 
1518.8422297159      1331.16 
1534.0306520131      2983.88 
1549.3709585332      3616.31 
1564.8646681186     4148.455 
1580.5133147997     7628.515 
1596.3184479477      7953.52 
1612.2816324272     7071.355 
1628.4044487515      7820.75 
1644.688493239       7422.4 
1661.1353781714 8472.2822727273 
1677.7467319531      20902.3 
1694.5241992726     27740.25 
1711.4694412654     67413.75 
1728.584135678    107122.55 
1745.8699770348       149247 
1763.3286768051     157302.5 
1780.9619635732     213644.5 
1798.7715832089     203891.5 
1816.759299041       181192 
1834.9268920314     193909.5 
1853.2761609517     314425.5 
1871.8089225613       336953 
1890.5270117869       403885 
1909.4322819047     338777.5 
1928.5266047238       327537 
1947.811870771 622858.72727273 
1967.2899894787 644694.47058824 
1986.9628893735 670048.80952381 
2006.8325182673       504395 
2026.9008434499       773304 
2047.1698518844       574269 
2067.6415504033   1067240.15 
2088.3179659073      1149585 
2109.2011455664      1158235 
2130.293157022       982179 
2151.5960885923    1093640.5 
2173.1120494782      1096655 
2194.843169973 1172511.6666667 
2216.7916016727      1097398 
2238.9595176894       973690 
2261.3491128663       862649 
2283.962603995      1174880 
2306.8022300349       965954 
2329.8702523353     303576.5 
2353.1689548586 386093.66666667 
2376.7006444072     227134.5 
2400.4676508513       358915 
2424.4723273598      1266820 
2448.7170506334      1356090 
2473.2042211397 1160153.3333333 
2497.9362633511 1456160.8695652 
2522.9156259846 984050.77777778 
2548.1447822445      1171505 
2573.6262300669 872435.66666667 
2599.3624923676 548202.33333333 
2625.3561172913      1951395 
2651.6096784642 2417446.6666667 
2678.1257752488      2267955 
2704.9070330013 1953236.6666667 
2731.9561033313 1114621.6666667 
2759.2756643647      1251818 
2786.8684210083     374659.5 
2814.7371052184 1916336.6666667 
2842.8844762706      2409180 
2871.3133210333 2935276.6666667 
2900.0264542436      3843700 
2929.026718786      3439805 
2958.3169859739      4037280 
2987.9001558336      4292520 
3017.779157392      4514150 
3047.9569489659      4523625 
3078.4365184556      4984470 
3109.2208836401      4725030 
3140.3130924765      5004165 
3171.7162234013      4432520 
3203.4333856353      4655945 
3235.4677194916      5059690 
3267.8223966866      5477925 
3300.5006206534      5654625 
3333.50562686      5428130 
3366.8406831286      5417040 
3400.5090899598      6017865 
3434.5141808594      6122330 
3468.859322668      5939565 
3503.5479158947      6323480 
3538.5833950537      6550810 
3573.9692290042      6375270 
3609.7089212942      6536746 
3645.8060105072      6962520 
3682.2640706123      8990600 
3719.0867113184     17265700 
3756.2775784316     23271050 
3793.8403542159     25805400 
3831.778757758     29294250 
3870.0965453356     22569800 
3908.797510789     17008010 
3947.8854858969     13817345 
3987.3643407558     27849750 
4027.2379841634     28931750 
4067.510364005     28813000 
4108.1854676451     27063900 
4149.2673223215 29479333.333333 
4190.7599955447     28334200 
4232.6675955002     28196350 
4274.9942714552     27037650 
4317.7442141697     24704300 
4360.9216563114     28032400 
4404.5308728746     26577600 
4448.5761816033     27049200 
4493.0619434193     27391100 
4537.9925628535     26849750 
4583.3724884821     26545100 
4629.2062133669     26685700 
4675.4982755006     25408450 
4722.2532582556     26194500 
4769.4757908381 25599733.333333 
4817.1705487465     23955400 
4865.342254234 22323033.333333 
4913.9956767763     23650650 
4963.1356335441 22755133.333333 
5012.7669898795     22339900 
5062.8946597783     22522800 
5113.5236063761     21220150 
5164.6588424398 20547566.666667 
5216.3054308642     20642600 
5268.4684851729     19807600 
5321.1531700246 19866266.666667 
5374.3647017249     19466400 
5428.1083487421 19447366.666667 
5482.3894322295 19039866.666667 
5537.2133265518 18761566.666667 
5592.5854598173     18618100 
5648.5113144155 18063233.333333 
5704.9964275597 17983366.666667 
5762.0463918353 17577466.666667 
5819.6668557536     17267200 
5877.8635243112     16714900 
5936.6421595543 16456566.666667 
5996.0085811498 15966466.666667 
6055.9686669613     15644400 
6116.5283536309 14886766.666667 
6177.6936371672 14933333.333333 
6239.4705735389     14452800 
6301.8652792743 14155366.666667 
6364.883932067     13900300 
6428.5327713877     13486700 
6492.8180991016 12989766.666667 
6557.7462800926 11839426.666667 
6623.3237428935 12794566.666667 
6689.5569803225     12481000 
6756.4525501257     12225100 
6824.0170756269     11905600 
6892.2572463832     11639900 
6961.179818847     11301025 
7030.7916170355 11089166.666667 
7101.0995332059     10681750 
7172.1105285379 10431033.333333 
7243.8316338233     10199600 
7316.2699501615     10016150 
7389.4326496631      9675105 
7463.3269761598      9450335 
7537.9602459214      9318210 
7613.3398483806      9055840 
7689.4732468644    8852392.5 
7766.367979333    8614882.5 
7844.0316591264      8356135 
7922.4719757176      8162575 
8001.6966954748      7994940 
8081.7136624296      7833615 
8162.5307990539    7541647.5 
8244.1561070444      7411860 
8326.5976681148    7168847.5 
8409.863644796      7150042 
8493.9622812439      6715930 
8578.9019040564      7483750 
8664.6909230969      7015052 
8751.3378323279      7547625 
8838.8512106512    7053127.5 
8927.2397227577      7021526 
9016.5121199853      6827670 
9106.6772411851      6826182 
9197.744013597      6216595 
9289.721453733      6508284 
9382.6186682703      6210572 
9476.444854953      5898440 
9571.2093035025      5885645 
9666.9213965375      5727964 
9763.5906105029      5614826 
9861.226516608      5416646 
9959.838781774      5255862 
10059.437169592      4986220 
10160.031541288      4996360 
10261.631856701      4868390 
10364.248175268      4730320 
10467.89065702      4526615 
10572.56956359      4390230 
10678.295259226      4238390 
10785.078211819      4127335 
10892.928993937      3872400 
11001.858283876      3959520 
11111.876866715      3834435 
11222.995635382 3667453.3333333 
11335.225591736      3549915 
11448.577847653      3511140 
11563.06362613      3339900 
11678.694262391      3248610 
11795.481205015      3140250 
11913.436017065 3084226.6666667 
12032.570377236      2980495 
12152.896081008      2917185 
12274.425041818 2824646.6666667 
12397.169292236      2746395 
12521.140985159 2644133.3333333 
12646.35239501      2584640 
12772.81591896 2443946.6666667 
12900.54407815 2412423.3333333 
13029.549518932      2344610 
13159.845014121 2269503.3333333 
13291.443464262      2209090 
13424.357898905 2141436.6666667 
13558.601477894 2061973.3333333 
13694.187492673 1980806.6666667 
13831.129367599      1936935 
13969.440661275 1883803.3333333 
14109.135067888      1817590 
14250.226418567      1758210 
14392.728682753 1676693.3333333 
14536.65596958 1640516.6666667 
14682.022529276 1579613.3333333 
14828.842754569 1532073.3333333 
14977.131182115 1473746.6666667 
15126.902493936      1441450 
15278.171518875      1393610 
15430.953234064 1369013.3333333 
15585.262766404 1335743.3333333 
15741.115394068 1292083.3333333 
15898.526548009 1287068.5714286 
16057.511813489      1208130 
16218.086931624      1211835 
16380.26780094      1130420 
16544.07047895      1140155 
16709.511183739      1069775 
16876.606295577      1061470 
17045.372358532      1024405 
17215.826082118       958678 
17387.984342939     936905.5 
17561.864186368       910194 
17737.482828232       885620 
17914.857656514     853744.5 
18094.006233079     804079.5 
18274.94629541     790456.5 
18457.695758364       764777 
18642.272715948       728542 
18828.695443107       712581 
19016.982397539     693220.5 
19207.152221514       666452 
19399.223743729       629885 
19593.215981166       618574 
19789.148140978       597464 
19987.039622388     577559.5 
20186.910018612       555734 
20388.779118798       538000 
20592.666909986     517934.5 
20798.593579086       500616 
21006.579514877       482730 
21216.645310025     466103.5 
21428.811763126     452437.5 
21643.099880757       427587 
21859.530879564       415635 
22078.12618836     401895.5 
22298.907450244     389878.5 
22521.896524746       375749 
22747.115489993 362011.33333333 
22974.586644893     348504.5 
23204.332511342       337911 
23436.375836456 324937.33333333 
23670.73959482       312363 
23907.446990769     302411.5 
24146.521460676 291278.33333333 
24387.986675283     280699.5 
24631.866542036       271180 
24878.185207456     260276.5 
25126.967059531 252265.66666667 
25378.236730126       245457 
25632.019097427 234234.66666667 
25888.339288402     229338.5 
26147.222681286       215953 
26408.694908098 212061.66666667 
26672.781857179       201645 
26939.509675751 198534.33333333 
27208.904772509       190690 
27480.993820234 180566.33333333 
27755.803758436       177097 
28033.361796021       171283 
28313.695413981 164579.66666667 
28596.832368121 156317.33333333 
28882.800691802 152098.66666667 
29171.62869872 146466.33333333 
29463.344985707       141099 
29757.978435564       135796 
30055.55821992       129618 
30356.113802119 125693.33333333 
30659.67494014 121340.33333333 
30966.271689541 116834.33333333 
31275.934406437 112836.66666667 
31588.693750501 109042.66666667 
31904.580688006     105392.8 
32223.626494886    101117.15 
32545.862759835      97599.2 
32871.321387434      92933.1 
33200.034601308     89726.35 
33532.034947321      86608.5 
33867.355296794     83786.45 
34206.028849762     80427.15 
34548.08913826      77868.4 
34893.570029642     75434.65 
35242.505729939      72210.9 
35594.930787238     69236.65 
35950.880095111      66409.4 
36310.388896062      64054.9 
36673.492785022      62219.8 
37040.227712872     59800.35 
37410.629990001      56912.3 
37784.736289901     55199.85 
38162.5836528     53279.55 
38544.209489328     51270.25 
38929.651584221     49026.85 
39318.948100064     47564.05 
39712.137581064     45546.55 
40109.258956875        43380 
40510.351546444      42406.2 
40915.455061908     40936.35 
41324.609612527     39082.15 
41737.855708653     37942.65 
42155.234265739     36683.05 
42576.786608396        35398 
43002.55447448      34142.9 
43432.580019225     32691.05 
43866.905819417 31520.166666667 
44305.574877612     30223.85 
44748.630626388      29191.5 
45196.116932652      28221.5 
45648.078101978 27050.433333333 
46104.558882998        25719 
46565.604471828      24885.4 
47031.260516546 24107.133333333 
47501.573121712      23148.5 
47976.588852929      22429.4 
48456.354741458 21550.466666667 
48940.918288873     20708.35 
49430.327471761      19928.8 
49924.630746479     19154.55 
50423.877053944 18464.266666667 
50928.115824483     17644.45 
51437.396982728 17117.033333333 
51951.770952555     16540.15 
52471.288662081      15892.9 
52996.001548702 15267.033333333 
53525.961564189      14628.6 
54061.221179831 14203.866666667 
54601.833391629 13607.533333333 
55147.851725545        13056 
55699.330242801      12683.3 
56256.323545229 12180.933333333 
56818.886780681 11634.966666667 
57387.075648488      11228.3 
57960.946404973      10786.5 
58540.555869022 10303.466666667 
59125.961427713      9897.98 
59717.22104199 9595.8966666667 
60314.39325241 9233.4166666667 
60917.537184934       8885.1 
61526.712556783 8558.9066666667 
62141.979682351      8236.42 
62763.399479174      7887.25 
63391.033473966 7651.0533333333 
64024.943808706 7322.6271428571 
64665.193246793      7067.64 
65311.845179261     6825.555 
65964.963631053     6508.765 
66624.613267364      6288.51 
67290.859400038      6042.18 
67963.767994038     5795.125 
68643.405673978      5602.76 
69329.839730718      5410.22 
70023.138128025     5182.285 
70723.369509305      4952.18 
71430.603204399       4799.5 
72144.909236443     4632.405 
72866.358328807     4451.885 
73595.021912095      4265.58 
74330.972131216     4023.485 
75074.281852528      3923.01 
75825.024671053      3805.36 
76583.274917764     3690.805 
77349.107666942      3532.35 
78122.598743611      3405.84 
78903.824731047     3273.015 
79692.862978358     3146.065 
80489.791608141     3026.205 
81294.689524223     2899.285 
82107.636419465     2802.665 
82928.712783659      2696.97 
83757.999911496     2596.305 
84595.579910611 2480.8866666667 
85441.535709717      2368.76 
86295.951066814     2275.075 
87158.910577482      2194.13 
88030.499683257      2125.32 
88910.80468009     2053.215 
89799.912726891 1964.1466666667 
90697.91185416      1881.62 
91604.890972701     1818.725 
92520.939882428 1741.6166666667 
93446.149281253     1663.415 
94380.610774065     1615.495 
95324.416881806      1549.55 
96277.661050624     1489.135 
97240.43766113 1429.6866666667 
98212.842037741     1370.855 
99194.970458119      1330.76 
100186.9201627      1299.45 
199060.83304441      83.9215 
399467.9878358      5.24007 
594753.39981818      1.02733 
793700.71765891     0.322712 
997811.18987739     0.131343 
1193529.3359837    0.0629873 
1399507.0114645    0.0338328 
