#  WAVELENGTH	        FLUX	
#  (ANGSTROM)	(ERG/CM2/S/A)	
############	############	
437.8657147254  1.19361E-24 
446.66681559138  6.16175E-24 
455.64481858477  2.53136E-23 
469.4513122327  1.13816E-22 
478.88728360858  4.78679E-22 
488.51291800911  1.89291E-21 
498.3320276611  7.05391E-21 
503.31534793771  2.00846E-20 
508.34850141708  4.74362E-20 
518.56630629557  1.23935E-19 
528.98948905211  3.96754E-19 
539.62217778206  1.19431E-18 
545.01839955988  3.48671E-18 
555.97326939103  9.71271E-18 
567.14833210579  2.60291E-17 
578.54801358112  6.64934E-17 
584.33349371693   1.6777E-16 
596.07859694064  4.04954E-16 
608.05977673914  9.48277E-16 
614.14037450653  2.15346E-15 
626.48459603412  4.75492E-15 
639.0769364144  1.02249E-14 
645.46770577855   2.1434E-14 
651.92238283633  3.80667E-14 
658.44160666469  6.20453E-14 
671.67628295866  1.22662E-13 
678.39304578824  2.37411E-13 
692.02874600859  4.49551E-13 
698.94903346867  8.30281E-13 
712.99790904139  1.61184E-12 
720.12788813181  2.87775E-12 
734.60245868325  4.77662E-12 
741.94848327009  8.25239E-12 
749.36796810279  1.40356E-11 
764.43026426165  2.35388E-11 
772.07456690427  3.88294E-11 
779.79531257331  6.32748E-11 
787.59326569905  1.00503E-10 
803.4238903396   1.6011E-10 
811.45812924299  2.51683E-10 
819.57271053542   3.8926E-10 
827.76843764078   5.9501E-10 
844.40658323736   8.9932E-10 
852.85064906973    1.3449E-9 
861.37915556043   1.98937E-9 
869.99294711603    2.9048E-9 
878.69287658719   4.22471E-9 
887.47980535306    6.0717E-9 
896.3546034066   8.64017E-9 
914.37133093507   1.10042E-5 
923.51504424442   3.79897E-5 
932.75019468686   5.48833E-5 
942.07769663373   7.86556E-5 
951.49847360007  0.000115788 
961.01345833607  0.000163326 
970.62359291943  0.000228454 
980.32982884862  0.000317474 
990.13312713711  0.000437796 
1000.0344584085  0.000610326 
1010.0348029926  0.000830308 
1020.1351510225   0.00106791 
1030.3365025327   0.00150886 
1040.639867558   0.00201515 
1051.0462662336   0.00267554 
1061.556728896   0.00347426 
1072.1722961849   0.00463599 
1082.8940191468   0.00605308 
1093.7229593382   0.00773333 
1104.6601889316    0.0383887 
1115.7067908209    0.0915374 
1126.8638587291     0.136716 
1138.1324973164     0.183919 
1149.5138222896     0.211069 
1161.0089605125     0.303222 
1172.6190501176     0.380706 
1184.3452406188    0.3395565 
1196.188693025     0.279663 
1208.1505799552      0.10863 
1220.2320857548     0.363318 
1232.4344066123     0.825029 
1244.7587506785     2.072195 
1257.2063381852      2.56353 
1269.7784015671      3.57329 
1282.4761855828      5.03455 
1295.3009474386      5.22481 
1308.253956913      7.15868 
1321.3364964821      7.91539 
1334.5498614469      9.73682 
1347.8953600614      11.7193 
1361.374313662      12.7256 
1374.9880567986     14.47925 
1388.7379373666      17.0115 
1402.6253167403     21.33565 
1416.6515699077      25.1627 
1430.8180856068 31.645029411765 
1445.1262664628 37.183584615385 
1459.5775291275      46.2649 
1474.1733044187     50.30065 
1488.9150374629      70.4299 
1503.8041878376 78.164309090909 
1518.8422297159      93.3326 
1534.0306520131     231.5485 
1549.3709585332      353.185 
1564.8646681186      439.806 
1580.5133147997     709.6295 
1596.3184479477      812.683 
1612.2816324272      922.454 
1628.4044487515      1115.76 
1644.688493239    1184.3325 
1661.1353781714 1608.1627272727 
1677.7467319531      3183.17 
1694.5241992726     5348.885 
1711.4694412654      7861.13 
1728.584135678      12132.4 
1745.8699770348      19049.2 
1763.3286768051     17007.05 
1780.9619635732      27503.5 
1798.7715832089        25524 
1816.759299041      28148.8 
1834.9268920314     29110.95 
1853.2761609517      42025.5 
1871.8089225613      50830.1 
1890.5270117869     63253.05 
1909.4322819047      62174.1 
1928.5266047238     60087.55 
1947.811870771 99892.318181818 
1967.2899894787 101472.21176471 
1986.9628893735 124118.14285714 
2006.8325182673       122795 
2026.9008434499     168777.5 
2047.1698518844     162526.5 
2067.6415504033     236805.7 
2088.3179659073     580083.5 
2109.2011455664     791048.5 
2130.293157022       778570 
2151.5960885923       888026 
2173.1120494782     968906.5 
2194.843169973       930851 
2216.7916016727       986082 
2238.9595176894       908909 
2261.3491128663     808748.5 
2283.962603995 1080610.6666667 
2306.8022300349     899248.5 
2329.8702523353     378083.5 
2353.1689548586 496088.33333333 
2376.7006444072     262123.5 
2400.4676508513       373859 
2424.4723273598 1053743.6666667 
2448.7170506334      1187765 
2473.2042211397       795915 
2497.9362633511 845003.04347826 
2522.9156259846 523827.37037037 
2548.1447822445      1178613 
2573.6262300669      1093908 
2599.3624923676       742524 
2625.3561172913      2480425 
2651.6096784642 2981763.3333333 
2678.1257752488      2709005 
2704.9070330013 2290806.6666667 
2731.9561033313      1439907 
2759.2756643647      1682760 
2786.8684210083     420799.5 
2814.7371052184      2677990 
2842.8844762706 2472123.3333333 
2871.3133210333 3743756.6666667 
2900.0264542436      5075220 
2929.026718786      4448235 
2958.3169859739      5042630 
2987.9001558336      5166040 
3017.779157392      5398870 
3047.9569489659      5524290 
3078.4365184556      5779520 
3109.2208836401      5721585 
3140.3130924765      5676885 
3171.7162234013      5165930 
3203.4333856353      5303555 
3235.4677194916      6116850 
3267.8223966866      6785025 
3300.5006206534      6710180 
3333.50562686      6559430 
3366.8406831286      6027670 
3400.5090899598      6509060 
3434.5141808594      6974370 
3468.859322668      7024860 
3503.5479158947      7260765 
3538.5833950537      7340145 
3573.9692290042      6651770 
3609.7089212942      7064020 
3645.8060105072 7879393.3333333 
3682.2640706123      8021170 
3719.0867113184      8310355 
3756.2775784316     10130480 
3793.8403542159      9845835 
3831.778757758     10738300 
3870.0965453356      9927810 
3908.797510789      8873655 
3947.8854858969      8269615 
3987.3643407558     13321550 
4027.2379841634     13623000 
4067.510364005     13626650 
4108.1854676451     13470450 
4149.2673223215 14427266.666667 
4190.7599955447     13929050 
4232.6675955002     13762900 
4274.9942714552     11725800 
4317.7442141697     12831950 
4360.9216563114     14177600 
4404.5308728746     14191300 
4448.5761816033 14601966.666667 
4493.0619434193     15292150 
4537.9925628535     15277400 
4583.3724884821     15020400 
4629.2062133669 15116766.666667 
4675.4982755006     14603600 
4722.2532582556     15178350 
4769.4757908381 15052533.333333 
4817.1705487465     14287300 
4865.342254234     13406200 
4913.9956767763     14285750 
4963.1356335441 13736866.666667 
5012.7669898795     13733400 
5062.8946597783 13965933.333333 
5113.5236063761     13306650 
5164.6588424398 12804433.333333 
5216.3054308642     13271950 
5268.4684851729 12892266.666667 
5321.1531700246 12919766.666667 
5374.3647017249     12781500 
5428.1083487421 12975033.333333 
5482.3894322295 12713333.333333 
5537.2133265518 12580633.333333 
5592.5854598173     12599250 
5648.5113144155 12306766.666667 
5704.9964275597 12398466.666667 
5762.0463918353 12251866.666667 
5819.6668557536     12198000 
5877.8635243112     11812000 
5936.6421595543     11805400 
5996.0085811498 11545433.333333 
6055.9686669613     11363600 
6116.5283536309 10777633.333333 
6177.6936371672 10963933.333333 
6239.4705735389     10692800 
6301.8652792743     10507400 
6364.883932067 10386633.333333 
6428.5327713877   10161302.5 
6492.8180991016 9925356.6666667 
6557.7462800926      9320340 
6623.3237428935      9791410 
6689.5569803225      9632685 
6756.4525501257 9443243.3333333 
6824.0170756269    9265197.5 
6892.2572463832      9102610 
6961.179818847      8878505 
7030.7916170355 8748513.3333333 
7101.0995332059      8507450 
7172.1105285379 8284443.3333333 
7243.8316338233    8190442.5 
7316.2699501615 8097966.6666667 
7389.4326496631      7818130 
7463.3269761598    7757252.5 
7537.9602459214      7625865 
7613.3398483806 7455056.6666667 
7689.4732468644    7307057.5 
7766.367979333      7188925 
7844.0316591264    7035552.5 
7922.4719757176    6862812.5 
8001.6966954748      6739610 
8081.7136624296    6629892.5 
8162.5307990539    6411327.5 
8244.1561070444      6333340 
8326.5976681148    6180917.5 
8409.863644796      6012110 
8493.9622812439      5548620 
8578.9019040564    5753962.5 
8664.6909230969      5410066 
8751.3378323279    5590172.5 
8838.8512106512    5372912.5 
8927.2397227577      5298328 
9016.5121199853    5196182.5 
9106.6772411851      5183536 
9197.744013597    4840592.5 
9289.721453733      4983092 
9382.6186682703      4797098 
9476.444854953      4615432 
9571.2093035025      4599880 
9666.9213965375      4509754 
9763.5906105029      4431338 
9861.226516608      4316826 
9959.838781774 4207481.3333333 
10059.437169592      4055280 
10160.031541288      4031670 
10261.631856701      3957635 
10364.248175268      3865925 
10467.89065702      3749535 
10572.56956359 3635683.3333333 
10678.295259226      3528675 
10785.078211819      3424695 
10892.928993937      3256495 
11001.858283876      3325415 
11111.876866715      3245645 
11222.995635382 3140366.6666667 
11335.225591736      3048800 
11448.577847653      3031845 
11563.06362613 2909673.3333333 
11678.694262391      2849215 
11795.481205015      2767565 
11913.436017065 2723916.6666667 
12032.570377236      2649050 
12152.896081008      2622785 
12274.425041818 2550146.6666667 
12397.169292236      2491150 
12521.140985159 2418473.3333333 
12646.35239501      2365180 
12772.81591896 2231163.3333333 
12900.54407815 2237643.3333333 
13029.549518932      2187215 
13159.845014121 2128906.6666667 
13291.443464262      2083660 
13424.357898905 2039286.6666667 
13558.601477894 1970103.3333333 
13694.187492673 1912283.3333333 
13831.129367599      1879475 
13969.440661275 1832553.3333333 
14109.135067888 1775546.6666667 
14250.226418567 1727196.6666667 
14392.728682753 1660076.6666667 
14536.65596958 1633804.3333333 
14682.022529276 1576973.3333333 
14828.842754569      1541840 
14977.131182115 1493406.6666667 
15126.902493936 1466673.3333333 
15278.171518875      1422660 
15430.953234064 1378763.3333333 
15585.262766404 1341786.6666667 
15741.115394068 1278253.3333333 
15898.526548009 1266612.8571429 
16057.511813489      1200060 
16218.086931624      1203160 
16380.26780094      1122940 
16544.07047895      1145680 
16709.511183739      1057935 
16876.606295577      1071080 
17045.372358532      1031310 
17215.826082118       948858 
17387.984342939     940327.5 
17561.864186368       918744 
17737.482828232     893261.5 
17914.857656514       859201 
18094.006233079     793499.5 
18274.94629541     791137.5 
18457.695758364       768398 
18642.272715948       717119 
18828.695443107       707936 
19016.982397539       693616 
19207.152221514       663631 
19399.223743729     618605.5 
19593.215981166       617073 
19789.148140978       596998 
19987.039622388       578848 
20186.910018612     553710.5 
20388.779118798     538566.5 
20592.666909986     517419.5 
20798.593579086       499084 
21006.579514877       482973 
21216.645310025     466000.5 
21428.811763126       451072 
21643.099880757 421137.66666667 
21859.530879564       414207 
22078.12618836     401030.5 
22298.907450244       388261 
22521.896524746     373767.5 
22747.115489993 359660.66666667 
22974.586644893     346239.5 
23204.332511342     334851.5 
23436.375836456 322474.66666667 
23670.73959482     308222.5 
23907.446990769     300101.5 
24146.521460676       287731 
24387.986675283       276479 
24631.866542036 266490.33333333 
24878.185207456       256795 
25126.967059531       247903 
25378.236730126     238428.5 
25632.019097427       229161 
25888.339288402       222433 
26147.222681286 209290.33333333 
26408.694908098 204840.33333333 
26672.781857179     196677.5 
26939.509675751       192701 
27208.904772509       184942 
27480.993820234 175022.33333333 
27755.803758436     171690.5 
28033.361796021       166140 
28313.695413981 159535.33333333 
28596.832368121       150972 
28882.800691802 147461.66666667 
29171.62869872 141669.33333333 
29463.344985707 136554.66666667 
29757.978435564       131312 
30055.55821992 125116.33333333 
30356.113802119 121135.66666667 
30659.67494014       117242 
30966.271689541 112845.66666667 
31275.934406437 108982.66666667 
31588.693750501 105174.33333333 
31904.580688006     101663.6 
32223.626494886     97424.15 
32545.862759835      93963.4 
32871.321387434      89412.5 
33200.034601308     86519.35 
33532.034947321      83523.7 
33867.355296794     80692.15 
34206.028849762      77486.9 
34548.08913826      74946.3 
34893.570029642     72595.95 
35242.505729939      69461.3 
35594.930787238     66483.35 
35950.880095111      63836.2 
36310.388896062      61554.9 
36673.492785022     59557.95 
37040.227712872     56882.75 
37410.629990001      54317.6 
37784.736289901     52718.65 
38162.5836528     50827.25 
38544.209489328      48746.4 
38929.651584221     46901.65 
39318.948100064     45106.15 
39712.137581064      43199.8 
40109.258956875      41356.4 
40510.351546444     40191.35 
40915.455061908     38824.35 
41324.609612527      37198.1 
41737.855708653     35938.25 
42155.234265739     34764.55 
42576.786608396        33466 
43002.55447448      32073.6 
43432.580019225     30590.65 
43866.905819417 29299.166666667 
44305.574877612      27991.5 
44748.630626388      27072.5 
45196.116932652      26090.1 
45648.078101978 25047.033333333 
46104.558882998     23872.55 
46565.604471828     23184.55 
47031.260516546      22436.4 
47501.573121712      21559.8 
47976.588852929      20883.1 
48456.354741458 20076.766666667 
48940.918288873      19311.4 
49430.327471761 18576.766666667 
49924.630746479     17875.35 
50423.877053944 17199.366666667 
50928.115824483     16457.85 
51437.396982728      15969.2 
51951.770952555      15367.7 
52471.288662081 14835.333333333 
52996.001548702      14206.5 
53525.961564189      13690.8 
54061.221179831      13225.9 
54601.833391629 12677.933333333 
55147.851725545     12247.05 
55699.330242801 11833.266666667 
56256.323545229 11370.366666667 
56818.886780681 10909.033333333 
57387.075648488 10488.633333333 
57960.946404973 10082.403333333 
58540.555869022 9641.8966666667 
59125.961427713 9295.3466666667 
59717.22104199 8962.6733333333 
60314.39325241      8623.05 
60917.537184934 8296.7833333333 
61526.712556783      7997.03 
62141.979682351 7691.7533333333 
62763.399479174 7402.8366666667 
63391.033473966      7151.94 
64024.943808706 6841.3014285714 
64665.193246793      6603.89 
65311.845179261      6379.81 
65964.963631053     6084.245 
66624.613267364       5872.6 
67290.859400038     5661.535 
67963.767994038      5417.28 
68643.405673978      5234.35 
69329.839730718      5060.26 
70023.138128025      4837.51 
70723.369509305     4630.985 
71430.603204399      4480.01 
72144.909236443      4334.73 
72866.358328807       4153.7 
73595.021912095     3980.085 
74330.972131216     3784.235 
75074.281852528     3659.685 
75825.024671053      3548.76 
76583.274917764     3440.805 
77349.107666942     3304.525 
78122.598743611     3174.515 
78903.824731047     3050.285 
79692.862978358      2931.39 
80489.791608141      2818.97 
81294.689524223      2709.87 
82107.636419465     2610.375 
82928.712783659      2512.06 
83757.999911496       2419.5 
84595.579910611 2310.4466666667 
85441.535709717      2206.14 
86295.951066814      2126.47 
87158.910577482     2047.755 
88030.499683257     1978.915 
88910.80468009      1910.29 
89799.912726891 1828.2066666667 
90697.91185416     1750.035 
91604.890972701      1691.89 
92520.939882428 1621.4566666667 
93446.149281253     1553.155 
94380.610774065     1503.275 
95324.416881806 1442.2133333333 
96277.661050624       1384.6 
97240.43766113      1328.95 
98212.842037741      1277.33 
99194.970458119     1237.015 
100186.9201627      1208.16 
199060.83304441      77.8729 
399467.9878358      4.87019 
594753.39981818     0.955996 
793700.71765891     0.300518 
997811.18987739     0.122362 
1193529.3359837     0.058694 
1399507.0114645     0.031528 
