#  WAVELENGTH	        FLUX	
#  (ANGSTROM)	(ERG/CM2/S/A)	
############	############	
315.30844740325  3.69731E-23 
324.86260866801  5.09713E-22 
334.70627057326   5.2214E-21 
344.8482052779  4.63914E-20 
355.29745074603  2.97278E-19 
362.43892950602  1.73316E-18 
373.42119150899  7.41648E-19 
384.7362270329  3.94407E-18 
392.46942519626  1.91549E-17 
404.36164124913  8.56105E-17 
412.48931023824  3.08468E-16 
420.78034537403  9.17287E-16 
429.23803031605  2.61165E-15 
437.8657147254  1.03017E-14 
446.66681559138  3.36796E-14 
455.64481858477  9.32888E-14 
469.4513122327  2.75496E-13 
478.88728360858  7.74586E-13 
488.51291800911  2.08151E-12 
498.3320276611  5.35318E-12 
503.31534793771  1.22232E-11 
508.34850141708  2.35226E-11 
518.56630629557  4.67778E-11 
528.98948905211   1.0779E-10 
539.62217778206  2.35741E-10 
545.01839955988  5.07597E-10 
555.97326939103   1.05321E-9 
567.14833210579   2.12344E-9 
578.54801358112   4.11636E-9 
584.33349371693    7.9701E-9 
596.07859694064   1.48798E-8 
608.05977673914   2.71953E-8 
614.14037450653   4.85664E-8 
626.48459603412   8.49783E-8 
639.0769364144   1.45808E-7 
645.46770577855   2.45753E-7 
651.92238283633   3.68244E-7 
658.44160666469   5.18899E-7 
671.67628295866   8.38004E-7 
678.39304578824   1.33189E-6 
692.02874600859    2.0847E-6 
698.94903346867   3.19765E-6 
712.99790904139   5.09374E-6 
720.12788813181   7.63574E-6 
734.60245868325   1.08725E-5 
741.94848327009   1.59082E-5 
749.36796810279   2.30245E-5 
764.43026426165   3.29664E-5 
772.07456690427   4.66897E-5 
779.79531257331   6.55307E-5 
787.59326569905   8.99347E-5 
803.4238903396   0.00012434 
811.45812924299  0.000170203 
819.57271053542   0.00022996 
827.76843764078   0.00030804 
844.40658323736  0.000409355 
852.85064906973  0.000539722 
861.37915556043  0.000706158 
869.99294711603  0.000913354 
878.69287658719   0.00118268 
887.47980535306   0.00151543 
896.3546034066   0.00191892 
914.37133093507     0.548383 
923.51504424442      1.75477 
932.75019468686      2.29475 
942.07769663373      3.00824 
951.49847360007         4.04 
961.01345833607      5.14672 
970.62359291943      6.22822 
980.32982884862      7.91611 
990.13312713711      9.51847 
1000.0344584085      12.3273 
1010.0348029926      15.1573 
1020.1351510225      17.5649 
1030.3365025327      22.4369 
1040.639867558      27.3444 
1051.0462662336      33.1073 
1061.556728896       39.396 
1072.1722961849      47.8888 
1082.8940191468      57.6732 
1093.7229593382      67.8823 
1104.6601889316      335.999 
1115.7067908209      704.449 
1126.8638587291      975.264 
1138.1324973164      1203.68 
1149.5138222896      1313.25 
1161.0089605125      1747.11 
1172.6190501176      2059.67 
1184.3452406188      1795.66 
1196.188693025      1532.11 
1208.1505799552      433.071 
1220.2320857548      1744.62 
1232.4344066123      3420.45 
1244.7587506785     10226.32 
1257.2063381852      13632.7 
1269.7784015671      19711.5 
1282.4761855828     30241.35 
1295.3009474386      29226.6 
1308.253956913      40696.5 
1321.3364964821      46710.7 
1334.5498614469     56536.35 
1347.8953600614      62824.5 
1361.374313662      69018.5 
1374.9880567986     75018.45 
1388.7379373666      86244.3 
1402.6253167403     97949.85 
1416.6515699077       111120 
1430.8180856068       119988 
1445.1262664628 147783.23076923 
1459.5775291275       156030 
1474.1733044187       179648 
1488.9150374629       212669 
1503.8041878376 228024.13636364 
1518.8422297159       207932 
1534.0306520131     322995.5 
1549.3709585332       405020 
1564.8646681186       450284 
1580.5133147997     676748.5 
1596.3184479477       755441 
1612.2816324272     868675.5 
1628.4044487515      1407550 
1644.688493239      2343165 
1661.1353781714 4121171.3636364 
1677.7467319531      8364630 
1694.5241992726      5849505 
1711.4694412654     12328550 
1728.584135678     17095750 
1745.8699770348     21698500 
1763.3286768051     16069100 
1780.9619635732     23818500 
1798.7715832089     21534850 
1816.759299041     19578400 
1834.9268920314     16868550 
1853.2761609517     21620800 
1871.8089225613     23325950 
1890.5270117869     24298350 
1909.4322819047     25279750 
1928.5266047238     21771750 
1947.811870771 30283854.545455 
1967.2899894787 29689611.764706 
1986.9628893735 27569995.238095 
2006.8325182673     24936200 
2026.9008434499     29880600 
2047.1698518844     29136600 
2067.6415504033     34709180 
2088.3179659073     30748600 
2109.2011455664     31334150 
2130.293157022     28392950 
2151.5960885923     29497400 
2173.1120494782     29339950 
2194.843169973     30417000 
2216.7916016727     29805350 
2238.9595176894     27672300 
2261.3491128663     27005750 
2283.962603995 28888466.666667 
2306.8022300349     27292750 
2329.8702523353     20574150 
2353.1689548586 22995733.333333 
2376.7006444072     18017050 
2400.4676508513     19400950 
2424.4723273598     25118000 
2448.7170506334     26471350 
2473.2042211397 23235033.333333 
2497.9362633511     25130200 
2522.9156259846 18226681.481481 
2548.1447822445     19720000 
2573.6262300669     24887600 
2599.3624923676     23445600 
2625.3561172913     30682400 
2651.6096784642 31839866.666667 
2678.1257752488     30190500 
2704.9070330013     28647800 
2731.9561033313 25719533.333333 
2759.2756643647     27272700 
2786.8684210083     13639650 
2814.7371052184 32839666.666667 
2842.8844762706 29888233.333333 
2871.3133210333 31554966.666667 
2900.0264542436     36196300 
2929.026718786     33587550 
2958.3169859739     35279300 
2987.9001558336     35587750 
3017.779157392     35544300 
3047.9569489659     35802100 
3078.4365184556     36462900 
3109.2208836401     35259350 
3140.3130924765     35966700 
3171.7162234013     33229300 
3203.4333856353     33400800 
3235.4677194916     34085200 
3267.8223966866     35255300 
3300.5006206534     35481450 
3333.50562686     34522600 
3366.8406831286     33977450 
3400.5090899598     33983450 
3434.5141808594     33898700 
3468.859322668     33547950 
3503.5479158947     33855750 
3538.5833950537     33731900 
3573.9692290042     32373100 
3609.7089212942     32521140 
3645.8060105072     33806300 
3682.2640706123     32495250 
3719.0867113184     31946800 
3756.2775784316     38474450 
3793.8403542159     42983200 
3831.778757758     55870100 
3870.0965453356     35952600 
3908.797510789     54877000 
3947.8854858969     45814700 
3987.3643407558     63159400 
4027.2379841634     67806200 
4067.510364005     56659300 
4108.1854676451     49870450 
4149.2673223215 65883066.666667 
4190.7599955447     64642000 
4232.6675955002     62793050 
4274.9942714552     58430450 
4317.7442141697     40132600 
4360.9216563114     57694750 
4404.5308728746     58359850 
4448.5761816033 58839366.666667 
4493.0619434193     58812850 
4537.9925628535     57712000 
4583.3724884821     56709800 
4629.2062133669 55709633.333333 
4675.4982755006     52078600 
4722.2532582556     53586700 
4769.4757908381     51404800 
4817.1705487465     41454100 
4865.342254234     39919600 
4913.9956767763     47489700 
4963.1356335441 46720233.333333 
5012.7669898795     45900450 
5062.8946597783 45709133.333333 
5113.5236063761     44038050 
5164.6588424398     42298200 
5216.3054308642     42306400 
5268.4684851729 40833233.333333 
5321.1531700246 39886566.666667 
5374.3647017249     39087700 
5428.1083487421 38801633.333333 
5482.3894322295 37899966.666667 
5537.2133265518 36896666.666667 
5592.5854598173     36310250 
5648.5113144155 35484233.333333 
5704.9964275597 34822866.666667 
5762.0463918353 33999133.333333 
5819.6668557536 33175966.666667 
5877.8635243112 32131333.333333 
5936.6421595543     31492100 
5996.0085811498 30553833.333333 
6055.9686669613 29931433.333333 
6116.5283536309     28627600 
6177.6936371672 28427866.666667 
6239.4705735389 27604033.333333 
6301.8652792743 26869033.333333 
6364.883932067 26186166.666667 
6428.5327713877     25205725 
6492.8180991016     22321100 
6557.7462800926 20144866.666667 
6623.3237428935 23421866.666667 
6689.5569803225     23017250 
6756.4525501257 22497833.333333 
6824.0170756269     21870150 
6892.2572463832 21294366.666667 
6961.179818847     20656775 
7030.7916170355 20161366.666667 
7101.0995332059     19440500 
7172.1105285379 19001033.333333 
7243.8316338233     18510500 
7316.2699501615 18092766.666667 
7389.4326496631     17479625 
7463.3269761598     17007925 
7537.9602459214     16618300 
7613.3398483806 16139033.333333 
7689.4732468644     15729750 
7766.367979333     15225500 
7844.0316591264     14773425 
7922.4719757176     14344625 
8001.6966954748     14013875 
8081.7136624296     13662375 
8162.5307990539     13152325 
8244.1561070444     12900250 
8326.5976681148     12555925 
8409.863644796     12156240 
8493.9622812439     11493225 
8578.9019040564     11382150 
8664.6909230969     10618002 
8751.3378323279     10999050 
8838.8512106512   10025452.5 
8927.2397227577     10243720 
9016.5121199853    9919297.5 
9106.6772411851     10317366 
9197.744013597    8629782.5 
9289.721453733      9914868 
9382.6186682703      9521368 
9476.444854953      8184436 
9571.2093035025    8825237.5 
9666.9213965375      8819656 
9763.5906105029      8626330 
9861.226516608      8270872 
9959.838781774 7563913.3333333 
10059.437169592      7146120 
10160.031541288      7614115 
10261.631856701      7446800 
10364.248175268      7225705 
10467.89065702      6945080 
10572.56956359      6675940 
10678.295259226      6423935 
10785.078211819      6113445 
10892.928993937      5228440 
11001.858283876      5883070 
11111.876866715      5788080 
11222.995635382      5546580 
11335.225591736      5368970 
11448.577847653      5283455 
11563.06362613      5039310 
11678.694262391      4873965 
11795.481205015      4723590 
11913.436017065 4617626.6666667 
12032.570377236      4454810 
12152.896081008      4364005 
12274.425041818 4212376.6666667 
12397.169292236      4089515 
12521.140985159      3925360 
12646.35239501      3774940 
12772.81591896 3290806.6666667 
12900.54407815 3536543.3333333 
13029.549518932      3460265 
13159.845014121 3354936.6666667 
13291.443464262      3260755 
13424.357898905      3158900 
13558.601477894 3039973.3333333 
13694.187492673 2920346.6666667 
13831.129367599      2846085 
13969.440661275 2763626.6666667 
14109.135067888      2663150 
14250.226418567 2571453.3333333 
14392.728682753 2454766.6666667 
14536.65596958 2394089.3333333 
14682.022529276 2304366.6666667 
14828.842754569 2232463.3333333 
14977.131182115 2156606.6666667 
15126.902493936 2095993.3333333 
15278.171518875 2021266.6666667 
15430.953234064 1952993.3333333 
15585.262766404      1885580 
15741.115394068 1805416.6666667 
15898.526548009 1755687.1428571 
16057.511813489      1660040 
16218.086931624      1646050 
16380.26780094      1519850 
16544.07047895      1573455 
16709.511183739      1406510 
16876.606295577      1459050 
17045.372358532      1421390 
17215.826082118      1261190 
17387.984342939      1272695 
17561.864186368      1263010 
17737.482828232      1229695 
17914.857656514      1168790 
18094.006233079      1031410 
18274.94629541      1081690 
18457.695758364      1047600 
18642.272715948       940385 
18828.695443107     960911.5 
19016.982397539       948329 
19207.152221514       895582 
19399.223743729     803815.5 
19593.215981166     842142.5 
19789.148140978     816826.5 
19987.039622388       788463 
20186.910018612     757845.5 
20388.779118798       732639 
20592.666909986       704473 
20798.593579086       679982 
21006.579514877     655070.5 
21216.645310025       630047 
21428.811763126     600806.5 
21643.099880757 548840.33333333 
21859.530879564       559182 
22078.12618836       541954 
22298.907450244     524872.5 
22521.896524746       506060 
22747.115489993 486180.66666667 
22974.586644893       467318 
23204.332511342     452578.5 
23436.375836456       435052 
23670.73959482       417479 
23907.446990769       404817 
24146.521460676 389143.33333333 
24387.986675283       374102 
24631.866542036       359748 
24878.185207456     346293.5 
25126.967059531 333539.66666667 
25378.236730126       321093 
25632.019097427 308346.33333333 
25888.339288402       296541 
26147.222681286 269571.33333333 
26408.694908098       274093 
26672.781857179     261078.5 
26939.509675751 258365.66666667 
27208.904772509 247043.66666667 
27480.993820234 230802.66666667 
27755.803758436     230114.5 
28033.361796021 222955.33333333 
28313.695413981       212989 
28596.832368121       196671 
28882.800691802       196938 
29171.62869872 190187.33333333 
29463.344985707 183047.66666667 
29757.978435564 175758.33333333 
30055.55821992       163852 
30356.113802119 158879.33333333 
30659.67494014       156765 
30966.271689541 151050.33333333 
31275.934406437 145741.66666667 
31588.693750501       140671 
31904.580688006       135857 
32223.626494886       130124 
32545.862759835       124721 
32871.321387434       115460 
33200.034601308     115169.5 
33532.034947321       111272 
33867.355296794       107658 
34206.028849762     103175.5 
34548.08913826      99813.5 
34893.570029642     96611.15 
35242.505729939        92465 
35594.930787238      88506.7 
35950.880095111      84816.4 
36310.388896062      82081.7 
36673.492785022        79360 
37040.227712872      74586.7 
37410.629990001      71206.1 
37784.736289901      70140.8 
38162.5836528     67498.45 
38544.209489328     64773.15 
38929.651584221      62195.4 
39318.948100064      60018.6 
39712.137581064     57363.95 
40109.258956875     53535.15 
40510.351546444      53162.2 
40915.455061908      51525.5 
41324.609612527      49018.3 
41737.855708653     47637.35 
42155.234265739      46208.8 
42576.786608396      44568.5 
43002.55447448      42949.8 
43432.580019225     40735.35 
43866.905819417 39378.033333333 
44305.574877612     37962.85 
44748.630626388      36652.9 
45196.116932652     35413.15 
45648.078101978 33882.633333333 
46104.558882998     31331.15 
46565.604471828     30467.45 
47031.260516546      30134.5 
47501.573121712     28976.45 
47976.588852929     28075.05 
48456.354741458        26994 
48940.918288873     25932.95 
49430.327471761      24936.3 
49924.630746479     23962.35 
50423.877053944      23006.8 
50928.115824483     21466.15 
51437.396982728 21251.666666667 
51951.770952555      20577.4 
52471.288662081 19823.766666667 
52996.001548702        18983 
53525.961564189      18258.1 
54061.221179831 17647.933333333 
54601.833391629 16890.533333333 
55147.851725545     16280.25 
55699.330242801      15746.6 
56256.323545229      15109.4 
56818.886780681 14443.033333333 
57387.075648488      13914.1 
57960.946404973 13353.933333333 
58540.555869022      12515.3 
59125.961427713 12201.133333333 
59717.22104199 11846.166666667 
60314.39325241      11416.2 
60917.537184934 10982.533333333 
61526.712556783 10574.666666667 
62141.979682351 10140.893333333 
62763.399479174      9706.95 
63391.033473966      9445.37 
64024.943808706 9037.3957142857 
64665.193246793      8726.15 
65311.845179261      8419.97 
65964.963631053     8027.485 
66624.613267364      7742.65 
67290.859400038     7386.225 
67963.767994038      7132.18 
68643.405673978      6898.73 
69329.839730718     6668.915 
70023.138128025     6375.495 
70723.369509305      6100.46 
71430.603204399      5900.84 
72144.909236443     5707.645 
72866.358328807     5469.025 
73595.021912095     5223.405 
74330.972131216     4801.295 
75074.281852528     4785.005 
75825.024671053      4669.21 
76583.274917764      4527.78 
77349.107666942      4340.65 
78122.598743611      4174.46 
78903.824731047      4011.48 
79692.862978358      3855.18 
80489.791608141     3706.815 
81294.689524223      3554.58 
82107.636419465     3431.365 
82928.712783659     3302.245 
83757.999911496      3179.18 
84595.579910611 3035.7266666667 
85441.535709717     2895.995 
86295.951066814      2777.99 
87158.910577482      2641.78 
88030.499683257      2597.33 
88910.80468009     2508.765 
89799.912726891 2400.9333333333 
90697.91185416     2298.135 
91604.890972701       2220.6 
92520.939882428      2126.46 
93446.149281253     2021.445 
94380.610774065     1971.525 
95324.416881806 1892.0433333333 
96277.661050624     1816.175 
97240.43766113 1743.5566666667 
98212.842037741      1674.92 
99194.970458119     1622.215 
100186.9201627      1584.03 
199060.83304441      101.331 
399467.9878358      6.30011 
594753.39981818      1.23327 
793700.71765891     0.387089 
997811.18987739     0.157447 
1193529.3359837    0.0754716 
1399507.0114645    0.0405214 
