#  WAVELENGTH	        FLUX	
#  (ANGSTROM)	(ERG/CM2/S/A)	
############	############	
437.8657147254  6.70453E-25 
446.66681559138  3.54541E-24 
455.64481858477  1.48702E-23 
469.4513122327  6.83488E-23 
478.88728360858  2.93634E-22 
488.51291800911  1.18495E-21 
498.3320276611  4.50297E-21 
503.31534793771  1.29615E-20 
508.34850141708  3.09812E-20 
518.56630629557  8.21171E-20 
528.98948905211  2.67453E-19 
539.62217778206  8.18098E-19 
545.01839955988  2.42851E-18 
555.97326939103   6.8716E-18 
567.14833210579  1.86939E-17 
578.54801358112  4.84519E-17 
584.33349371693   1.2395E-16 
596.07859694064  3.03237E-16 
608.05977673914  7.19574E-16 
614.14037450653  1.65491E-15 
626.48459603412  3.69914E-15 
639.0769364144  8.04838E-15 
645.46770577855  1.70683E-14 
651.92238283633  3.05863E-14 
658.44160666469  5.02347E-14 
671.67628295866  1.00387E-13 
678.39304578824  1.96271E-13 
692.02874600859  3.75472E-13 
698.94903346867  7.00357E-13 
712.99790904139  1.37367E-12 
720.12788813181  2.47527E-12 
734.60245868325  4.14181E-12 
741.94848327009  7.21729E-12 
749.36796810279   1.2382E-11 
764.43026426165  2.09311E-11 
772.07456690427  3.48212E-11 
779.79531257331  5.71902E-11 
787.59326569905   9.1556E-11 
803.4238903396  1.46942E-10 
811.45812924299  2.32643E-10 
819.57271053542  3.62374E-10 
827.76843764078  5.57782E-10 
844.40658323736  8.48775E-10 
852.85064906973   1.27764E-9 
861.37915556043   1.90232E-9 
869.99294711603    2.7936E-9 
878.69287658719   4.09067E-9 
887.47980535306   5.91464E-9 
896.3546034066   8.45202E-9 
914.37133093507   7.49388E-6 
923.51504424442   2.59433E-5 
932.75019468686   3.73248E-5 
942.07769663373   5.35297E-5 
951.49847360007   7.96689E-5 
961.01345833607  0.000112878 
970.62359291943  0.000157659 
980.32982884862  0.000218542 
990.13312713711  0.000300263 
1000.0344584085  0.000422785 
1010.0348029926  0.000575979 
1020.1351510225   0.00076481 
1030.3365025327   0.00104893 
1040.639867558   0.00140446 
1051.0462662336   0.00186794 
1061.556728896   0.00246214 
1072.1722961849   0.00324741 
1082.8940191468   0.00425492 
1093.7229593382   0.00551321 
1104.6601889316    0.0313727 
1115.7067908209     0.071576 
1126.8638587291      0.10465 
1138.1324973164     0.139948 
1149.5138222896     0.162242 
1161.0089605125     0.233956 
1172.6190501176     0.288095 
1184.3452406188     0.265988 
1196.188693025     0.236231 
1208.1505799552    0.0934588 
1220.2320857548     0.317351 
1232.4344066123       0.6442 
1244.7587506785     2.264465 
1257.2063381852      3.24909 
1269.7784015671      6.32361 
1282.4761855828     12.58625 
1295.3009474386      10.1021 
1308.253956913      21.4107 
1321.3364964821      27.3188 
1334.5498614469     37.55875 
1347.8953600614      46.5859 
1361.374313662       52.738 
1374.9880567986     61.57035 
1388.7379373666      77.7572 
1402.6253167403     94.86525 
1416.6515699077      112.203 
1430.8180856068 134.40511764706 
1445.1262664628 170.65792307692 
1459.5775291275      198.912 
1474.1733044187     231.8525 
1488.9150374629      331.013 
1503.8041878376     358.6595 
1518.8422297159      361.322 
1534.0306520131      889.993 
1549.3709585332      1142.64 
1564.8646681186    1376.8595 
1580.5133147997      2472.31 
1596.3184479477      2637.23 
1612.2816324272      2564.42 
1628.4044487515      2994.85 
1644.688493239      2838.21 
1661.1353781714 3382.7977272727 
1677.7467319531      7968.42 
1694.5241992726      10254.7 
1711.4694412654      20494.9 
1728.584135678     31275.95 
1745.8699770348      45443.4 
1763.3286768051      46337.1 
1780.9619635732      66574.6 
1798.7715832089      57093.2 
1816.759299041      53389.4 
1834.9268920314      67250.5 
1853.2761609517    106594.15 
1871.8089225613       120707 
1890.5270117869       146979 
1909.4322819047       126521 
1928.5266047238     125000.9 
1947.811870771 235553.36363636 
1967.2899894787 242975.29411765 
1986.9628893735 277256.9047619 
2006.8325182673       223591 
2026.9008434499     338348.5 
2047.1698518844     261479.5 
2067.6415504033     508718.4 
2088.3179659073       696400 
2109.2011455664     721489.5 
2130.293157022     628580.5 
2151.5960885923       712674 
2173.1120494782       730614 
2194.843169973       766816 
2216.7916016727     733088.5 
2238.9595176894       647550 
2261.3491128663     564810.5 
2283.962603995       800009 
2306.8022300349       645113 
2329.8702523353       193751 
2353.1689548586       248911 
2376.7006444072       145890 
2400.4676508513       230947 
2424.4723273598 872157.33333333 
2448.7170506334       960669 
2473.2042211397 772326.33333333 
2497.9362633511 964268.73913043 
2522.9156259846 648348.07407407 
2548.1447822445     850286.5 
2573.6262300669 604603.33333333 
2599.3624923676       368884 
2625.3561172913    1468382.5 
2651.6096784642      1883220 
2678.1257752488      1752305 
2704.9070330013 1477503.3333333 
2731.9561033313 802398.66666667 
2759.2756643647 892400.33333333 
2786.8684210083       258799 
2814.7371052184      1421158 
2842.8844762706 1842596.6666667 
2871.3133210333 2395706.6666667 
2900.0264542436      3225560 
2929.026718786      2843350 
2958.3169859739      3411910 
2987.9001558336      3611210 
3017.779157392      3817710 
3047.9569489659      3848005 
3078.4365184556      4299530 
3109.2208836401      4081240 
3140.3130924765      4277830 
3171.7162234013      3762820 
3203.4333856353      3917870 
3235.4677194916      4331010 
3267.8223966866      4769865 
3300.5006206534      4901775 
3333.50562686      4694660 
3366.8406831286      4664710 
3400.5090899598      5206960 
3434.5141808594      5355400 
3468.859322668      5196275 
3503.5479158947      5522700 
3538.5833950537      5738870 
3573.9692290042      5497440 
3609.7089212942      5658128 
3645.8060105072      6078170 
3682.2640706123      7495580 
3719.0867113184     11734200 
3756.2775784316     15532600 
3793.8403542159     17433650 
3831.778757758     20195150 
3870.0965453356     15377300 
3908.797510789     11495365 
3947.8854858969      8932000 
3987.3643407558     19632050 
4027.2379841634     20851450 
4067.510364005     20772550 
4108.1854676451     19910600 
4149.2673223215 22015133.333333 
4190.7599955447     21236950 
4232.6675955002     21287100 
4274.9942714552     20066350 
4317.7442141697     18727550 
4360.9216563114     21544850 
4404.5308728746     20455450 
4448.5761816033 20926166.666667 
4493.0619434193     21521450 
4537.9925628535     21183850 
4583.3724884821     20936700 
4629.2062133669 21156133.333333 
4675.4982755006     20159700 
4722.2532582556     20929500 
4769.4757908381     20578100 
4817.1705487465     19266000 
4865.342254234 18009866.666667 
4913.9956767763     19207000 
4963.1356335441 18430933.333333 
5012.7669898795     18209300 
5062.8946597783 18498566.666667 
5113.5236063761     17422700 
5164.6588424398     16935300 
5216.3054308642     17117300 
5268.4684851729     16428500 
5321.1531700246 16578233.333333 
5374.3647017249     16310800 
5428.1083487421 16409166.666667 
5482.3894322295     16062700 
5537.2133265518 15873166.666667 
5592.5854598173     15835300 
5648.5113144155 15372333.333333 
5704.9964275597     15391500 
5762.0463918353 15104333.333333 
5819.6668557536 14936766.666667 
5877.8635243112     14472400 
5936.6421595543 14321966.666667 
5996.0085811498 13909966.666667 
6055.9686669613 13662666.666667 
6116.5283536309 12955433.333333 
6177.6936371672 13099633.333333 
6239.4705735389     12695900 
6301.8652792743 12457633.333333 
6364.883932067 12270233.333333 
6428.5327713877     11949625 
6492.8180991016 11579333.333333 
6557.7462800926 10636983.333333 
6623.3237428935 11415566.666667 
6689.5569803225     11165800 
6756.4525501257 10955233.333333 
6824.0170756269     10696725 
6892.2572463832 10480433.333333 
6961.179818847     10188675 
7030.7916170355     10020230 
7101.0995332059    9667372.5 
7172.1105285379      9434930 
7243.8316338233    9260152.5 
7316.2699501615      9127250 
7389.4326496631    8801532.5 
7463.3269761598      8649465 
7537.9602459214      8539730 
7613.3398483806 8311486.6666667 
7689.4732468644      8130340 
7766.367979333    7946622.5 
7844.0316591264    7721332.5 
7922.4719757176      7551650 
8001.6966954748    7404362.5 
8081.7136624296      7274885 
8162.5307990539      7007820 
8244.1561070444      6905325 
8326.5976681148      6684695 
8409.863644796      6549832 
8493.9622812439    6009322.5 
8578.9019040564    6628867.5 
8664.6909230969      6213912 
8751.3378323279      6681715 
8838.8512106512    6284677.5 
8927.2397227577      6255356 
9016.5121199853    6102477.5 
9106.6772411851      6115302 
9197.744013597      5600495 
9289.721453733      5858642 
9382.6186682703      5601518 
9476.444854953      5342278 
9571.2093035025    5331382.5 
9666.9213965375      5195404 
9763.5906105029      5113038 
9861.226516608      4945140 
9959.838781774 4807748.6666667 
10059.437169592      4582420 
10160.031541288      4589865 
10261.631856701      4485915 
10364.248175268      4366310 
10467.89065702      4185735 
10572.56956359 4070923.3333333 
10678.295259226      3937325 
10785.078211819      3833685 
10892.928993937      3610750 
11001.858283876      3701570 
11111.876866715      3588965 
11222.995635382 3443176.6666667 
11335.225591736      3334530 
11448.577847653      3313305 
11563.06362613 3153536.6666667 
11678.694262391      3078195 
11795.481205015      2977395 
11913.436017065 2934283.3333333 
12032.570377236      2839995 
12152.896081008      2788345 
12274.425041818 2705676.6666667 
12397.169292236      2636520 
12521.140985159 2541503.3333333 
12646.35239501      2489445 
12772.81591896 2352713.3333333 
12900.54407815 2332143.3333333 
13029.549518932      2272165 
13159.845014121      2201940 
13291.443464262      2147785 
13424.357898905      2087830 
13558.601477894      2011690 
13694.187492673 1936176.6666667 
13831.129367599      1897885 
13969.440661275 1847663.3333333 
14109.135067888      1785150 
14250.226418567 1729803.3333333 
14392.728682753 1650186.6666667 
14536.65596958      1619709 
14682.022529276      1559590 
14828.842754569 1517646.6666667 
14977.131182115      1461520 
15126.902493936 1428253.3333333 
15278.171518875 1377863.3333333 
15430.953234064 1350136.6666667 
15585.262766404 1317476.6666667 
15741.115394068      1270430 
15898.526548009      1271000 
16057.511813489      1190690 
16218.086931624      1201535 
16380.26780094      1115420 
16544.07047895      1133275 
16709.511183739      1058625 
16876.606295577      1056710 
17045.372358532      1018195 
17215.826082118       948047 
17387.984342939       930013 
17561.864186368       904402 
17737.482828232     879845.5 
17914.857656514       848387 
18094.006233079     795553.5 
18274.94629541     785039.5 
18457.695758364       759563 
18642.272715948       720524 
18828.695443107       705521 
19016.982397539     688387.5 
19207.152221514     661064.5 
19399.223743729       622651 
19593.215981166       613615 
19789.148140978     592806.5 
19987.039622388       573788 
20186.910018612     551032.5 
20388.779118798     534441.5 
20592.666909986       513922 
20798.593579086     496571.5 
21006.579514877       479076 
21216.645310025     462515.5 
21428.811763126     449120.5 
21643.099880757       423010 
21859.530879564     412172.5 
22078.12618836     398635.5 
22298.907450244     386700.5 
22521.896524746       372065 
22747.115489993 358664.66666667 
22974.586644893     345416.5 
23204.332511342       334931 
23436.375836456 322208.66666667 
23670.73959482     309345.5 
23907.446990769       299638 
24146.521460676 288253.66666667 
24387.986675283     277469.5 
24631.866542036       267875 
24878.185207456       256916 
25126.967059531       248878 
25378.236730126     241943.5 
25632.019097427 230622.33333333 
25888.339288402     225972.5 
26147.222681286 212216.33333333 
26408.694908098 208767.66666667 
26672.781857179       198321 
26939.509675751 195723.33333333 
27208.904772509       187972 
27480.993820234       177615 
27755.803758436     174531.5 
28033.361796021       168795 
28313.695413981 162167.33333333 
28596.832368121 153690.33333333 
28882.800691802       149837 
29171.62869872 144193.33333333 
29463.344985707 138946.33333333 
29757.978435564 133672.66666667 
30055.55821992       127445 
30356.113802119 123604.33333333 
30659.67494014 119378.33333333 
30966.271689541       114880 
31275.934406437 110975.66666667 
31588.693750501       107250 
31904.580688006     103653.6 
32223.626494886     99431.85 
32545.862759835      95943.2 
32871.321387434     91253.05 
33200.034601308     88174.35 
33532.034947321      85085.9 
33867.355296794     82284.05 
34206.028849762     79024.55 
34548.08913826      76479.2 
34893.570029642      74112.1 
35242.505729939        70930 
35594.930787238      67953.8 
35950.880095111     65189.25 
36310.388896062      62875.5 
36673.492785022     60973.45 
37040.227712872     58513.95 
37410.629990001     55683.75 
37784.736289901      54037.3 
38162.5836528      52188.6 
38544.209489328     50165.15 
38929.651584221      47984.9 
39318.948100064     46511.75 
39712.137581064     44497.45 
40109.258956875     42411.65 
40510.351546444      41452.3 
40915.455061908     40038.45 
41324.609612527      38196.1 
41737.855708653      37078.8 
42155.234265739     35865.65 
42576.786608396        34604 
43002.55447448      33351.6 
43432.580019225     31895.35 
43866.905819417      30740.8 
44305.574877612     29459.85 
44748.630626388      28456.6 
45196.116932652      27507.7 
45648.078101978      26367.3 
46104.558882998      25067.2 
46565.604471828      24263.6 
47031.260516546      23512.1 
47501.573121712      22578.8 
47976.588852929     21873.95 
48456.354741458      21019.9 
48940.918288873     20200.15 
49430.327471761 19437.633333333 
49924.630746479      18685.9 
50423.877053944 17994.633333333 
50928.115824483     17190.25 
51437.396982728        16681 
51951.770952555     16097.75 
52471.288662081 15486.433333333 
52996.001548702      14862.1 
53525.961564189      14255.7 
54061.221179831      13824.4 
54601.833391629 13243.333333333 
55147.851725545     12719.65 
55699.330242801 12343.333333333 
56256.323545229 11855.533333333 
56818.886780681 11329.366666667 
57387.075648488      10927.2 
57960.946404973 10502.566666667 
58540.555869022 10032.743333333 
59125.961427713      9636.17 
59717.22104199      9333.79 
60314.39325241 8979.2966666667 
60917.537184934      8638.99 
61526.712556783      8322.24 
62141.979682351 8008.3333333333 
62763.399479174      7673.41 
63391.033473966      7440.85 
64024.943808706 7119.2028571429 
64665.193246793      6871.66 
65311.845179261      6635.26 
65964.963631053     6327.525 
66624.613267364      6110.43 
67290.859400038      5874.88 
67963.767994038     5632.845 
68643.405673978      5442.85 
69329.839730718     5258.225 
70023.138128025      5032.96 
70723.369509305     4812.985 
71430.603204399      4660.87 
72144.909236443     4501.685 
72866.358328807     4323.005 
73595.021912095      4141.87 
74330.972131216      3914.96 
75074.281852528     3809.195 
75825.024671053       3694.1 
76583.274917764      3582.67 
77349.107666942      3431.81 
78122.598743611     3305.675 
78903.824731047      3176.48 
79692.862978358      3052.91 
80489.791608141     2936.315 
81294.689524223      2815.22 
82107.636419465      2719.21 
82928.712783659     2616.475 
83757.999911496      2518.97 
84595.579910611 2406.7966666667 
85441.535709717      2298.16 
86295.951066814     2208.575 
87158.910577482      2129.52 
88030.499683257     2061.555 
88910.80468009      1990.81 
89799.912726891 1904.8833333333 
90697.91185416      1824.05 
91604.890972701     1763.285 
92520.939882428      1689.14 
93446.149281253     1613.725 
94380.610774065      1566.24 
95324.416881806 1502.5233333333 
96277.661050624      1443.36 
97240.43766113 1385.5533333333 
98212.842037741       1329.7 
99194.970458119      1289.54 
100186.9201627      1259.23 
199060.83304441      81.1523 
399467.9878358      5.06442 
594753.39981818     0.992841 
793700.71765891     0.311892 
997811.18987739     0.126951 
1193529.3359837     0.060889 
1399507.0114645    0.0327083 
