#  WAVELENGTH	        FLUX	
#  (ANGSTROM)	(ERG/CM2/S/A)	
############	############	
        90.9   0.00792324 
    92.72709     0.020168 
95.53681355409    0.0476256 
97.457103506527    0.0816311 
99.415991287008     0.147997 
101.41425271188      0.30434 
103.45267919139     0.511857 
105.53207804313     0.846104 
107.6532728118       1.4897 
109.81710359532      2.98839 
113.14467165136      7.19283 
117.73879903054      17.0322 
120.10534889105      36.5318 
123.7446610678        73.96 
126.23192875526       116.19 
127.49424804281      158.749 
130.05688242847      233.158 
131.35745125276      326.942 
132.67102576529      426.293 
135.33771338317      670.276 
139.43858143639      1129.51 
142.24129692326      1912.74 
146.55135046134      3181.94 
150.99200293167      5630.55 
154.02694219059      9749.73 
158.69411256591      15692.2 
161.88386422848        30655 
165.13772989948      48984.9 
170.14156825316      74067.6 
171.84298393569      99772.1 
175.2970279128       142734 
178.82049817385       201521 
180.60870315558       216066 
186.0813274699       347423 
189.82156215205       512816 
193.6369755513       707453 
197.52907875988      1017950 
201.49941324296      1189680 
203.51440737539      1620410 
209.68109743327      2336120 
216.03464436659      3330360 
218.19499081026      4246560 
222.58071012555      4911470 
224.8065172268      6053980 
229.32512822306    217827000 
233.93456330034   1053560000 
238.63664802268   2001580000 
245.86757709442   4986600000 
250.80951539401  19157100000 
255.85078665343  50240700000 
258.40929451997  37313700000 
263.60332133982 119680000000 
266.23935455322 133631000000 
271.59076557974 156092000000 
277.04973996789 107736000000 
282.61843974125 185390000000 
288.29907038004 262551000000 
294.09388169468 216933000000 
300.00516871675 159684000000 
306.03527260795 173433000000 
315.30844740325  43662100000 
324.86260866801  55376500000 
334.70627057326  35690000000 
344.8482052779  36794400000 
355.29745074603  95210500000 
362.43892950602 201147000000 
373.42119150899 254714000000 
384.7362270329 201237000000 
392.46942519626 338978000000 
404.36164124913 519900000000 
412.48931023824 491935000000 
420.78034537403 429755000000 
429.23803031605 400915000000 
437.8657147254 494448000000 
446.66681559138 492913000000 
455.64481858477 400142000000 
469.4513122327 447233000000 
478.88728360858 494933000000 
488.51291800911 408377000000 
498.3320276611 553507000000 
503.31534793771 455148000000 
508.34850141708 536847000000 
518.56630629557 503193000000 
528.98948905211 462082000000 
539.62217778206 366859000000 
545.01839955988 301210000000 
555.97326939103 390102000000 
567.14833210579 443612000000 
578.54801358112 440776000000 
584.33349371693 431296000000 
596.07859694064 370942000000 
608.05977673914 299208000000 
614.14037450653 376054000000 
626.48459603412 321752000000 
639.0769364144 378128000000 
645.46770577855 347190000000 
651.92238283633 308588000000 
658.44160666469 353461000000 
671.67628295866 348482000000 
678.39304578824 307365000000 
692.02874600859 331451000000 
698.94903346867 291197000000 
712.99790904139 308370000000 
720.12788813181 312585000000 
734.60245868325 302709000000 
741.94848327009 283689000000 
749.36796810279 272688000000 
764.43026426165 239109000000 
772.07456690427 260771000000 
779.79531257331 227093000000 
787.59326569905 244865000000 
803.4238903396 248231000000 
811.45812924299 241497000000 
819.57271053542 238119000000 
827.76843764078 213797000000 
844.40658323736 223524000000 
852.85064906973 208122000000 
861.37915556043 214944000000 
869.99294711603 211746000000 
878.69287658719 202736000000 
887.47980535306 196759000000 
896.3546034066 188658000000 
914.37133093507 137170000000 
923.51504424442 197425000000 
932.75019468686 240554000000 
942.07769663373 265927000000 
951.49847360007 302566000000 
961.01345833607 311898000000 
970.62359291943 247789000000 
980.32982884862 278537000000 
990.13312713711 242787000000 
1000.0344584085 245689000000 
1010.0348029926 246171000000 
1020.1351510225 227933000000 
1030.3365025327 255708000000 
1040.639867558 261339000000 
1051.0462662336 253927000000 
1061.556728896 237462000000 
1072.1722961849 244967000000 
1082.8940191468 219835000000 
1093.7229593382 230096000000 
1104.6601889316 222895000000 
1115.7067908209 213597000000 
1126.8638587291 214251000000 
1138.1324973164 212120000000 
1149.5138222896 201804000000 
1161.0089605125 185311000000 
1172.6190501176 173952000000 
1184.3452406188 176034500000 
1196.188693025 166734000000 
1208.1505799552 140369000000 
1220.2320857548 156981000000 
1232.4344066123 147484000000 
1244.7587506785 144504500000 
1257.2063381852 146360000000 
1269.7784015671 144358000000 
1282.4761855828 141336500000 
1295.3009474386 134871000000 
1308.253956913 131734000000 
1321.3364964821 128384000000 
1334.5498614469 123702000000 
1347.8953600614 116736000000 
1361.374313662 110393000000 
1374.9880567986 105451500000 
1388.7379373666 103203000000 
1402.6253167403 101792700000 
1416.6515699077  99800900000 
1430.8180856068 99336011764.706 
1445.1262664628 94030069230.769 
1459.5775291275  91616900000 
1474.1733044187  91124050000 
1488.9150374629  87970200000 
1503.8041878376 84594036363.636 
1518.8422297159  82895600000 
1534.0306520131  72845250000 
1549.3709585332  68301400000 
1564.8646681186  73533550000 
1580.5133147997  71612450000 
1596.3184479477  68868000000 
1612.2816324272  67164450000 
1628.4044487515  66348600000 
1644.688493239  63631400000 
1661.1353781714 62648159090.909 
1677.7467319531  62619400000 
1694.5241992726  60831950000 
1711.4694412654  56559750000 
1728.584135678  56745600000 
1745.8699770348  55080600000 
1763.3286768051  53221550000 
1780.9619635732  51443350000 
1798.7715832089  49132100000 
1816.759299041  47851700000 
1834.9268920314  46848100000 
1853.2761609517  45492750000 
1871.8089225613  43694750000 
1890.5270117869  42702150000 
1909.4322819047  40739550000 
1928.5266047238  39941050000 
1947.811870771 38281227272.727 
1967.2899894787 37160429411.765 
1986.9628893735 36053342857.143 
2006.8325182673  34945300000 
2026.9008434499  33515900000 
2047.1698518844  24386250000 
2067.6415504033  24814530000 
2088.3179659073  29034450000 
2109.2011455664  29354950000 
2130.293157022  28491100000 
2151.5960885923  27276850000 
2173.1120494782  26730500000 
2194.843169973  25866700000 
2216.7916016727  25265550000 
2238.9595176894  24010750000 
2261.3491128663  23760100000 
2283.962603995 22404966666.667 
2306.8022300349  21874650000 
2329.8702523353  21279500000 
2353.1689548586 20282333333.333 
2376.7006444072  19002350000 
2400.4676508513  18774850000 
2424.4723273598  18330800000 
2448.7170506334  17561800000 
2473.2042211397 16789966666.667 
2497.9362633511 15935626086.957 
2522.9156259846 15846085185.185 
2548.1447822445  15424250000 
2573.6262300669 14774566666.667 
2599.3624923676  14243000000 
2625.3561172913  13801900000 
2651.6096784642 13311266666.667 
2678.1257752488  12852800000 
2704.9070330013 12502566666.667 
2731.9561033313  11866200000 
2759.2756643647 11501166666.667 
2786.8684210083  11108400000 
2814.7371052184 10773966666.667 
2842.8844762706 10359866666.667 
2871.3133210333 9928206666.6667 
2900.0264542436   9674390000 
2929.026718786   9348565000 
2958.3169859739   8985500000 
2987.9001558336   8633990000 
3017.779157392   8281500000 
3047.9569489659   7992510000 
3078.4365184556   7756260000 
3109.2208836401   7484500000 
3140.3130924765   7159625000 
3171.7162234013   6921850000 
3203.4333856353   6624815000 
3235.4677194916   6475310000 
3267.8223966866   6224760000 
3300.5006206534   5965900000 
3333.50562686   5728250000 
3366.8406831286   5564225000 
3400.5090899598   5332870000 
3434.5141808594   5149980000 
3468.859322668   5008035000 
3503.5479158947   4811280000 
3538.5833950537   4610535000 
3573.9692290042   4471160000 
3609.7089212942   4294618000 
3645.8060105072 3679483333.3333 
3682.2640706123   3565565000 
3719.0867113184   3537895000 
3756.2775784316   3568280000 
3793.8403542159   3517090000 
3831.778757758   3508545000 
3870.0965453356   3187930000 
3908.797510789   3337755000 
3947.8854858969   3092275000 
3987.3643407558   3112010000 
4027.2379841634   2981565000 
4067.510364005   2856050000 
4108.1854676451   2688995000 
4149.2673223215 2668713333.3333 
4190.7599955447   2535360000 
4232.6675955002   2470335000 
4274.9942714552   2380490000 
4317.7442141697   2184935000 
4360.9216563114   2207905000 
4404.5308728746   2135990000 
4448.5761816033 2049083333.3333 
4493.0619434193   1960765000 
4537.9925628535   1878670000 
4583.3724884821   1839815000 
4629.2062133669 1750993333.3333 
4675.4982755006   1664905000 
4722.2532582556   1646235000 
4769.4757908381 1579926666.6667 
4817.1705487465   1499300000 
4865.342254234   1424280000 
4913.9956767763   1404825000 
4963.1356335441 1352016666.6667 
5012.7669898795   1301235000 
5062.8946597783 1253653333.3333 
5113.5236063761   1206800000 
5164.6588424398   1163990000 
5216.3054308642   1121570000 
5268.4684851729   1081660000 
5321.1531700246 1036306666.6667 
5374.3647017249    988137500 
5428.1083487421    965057000 
5482.3894322295 925294333.33333 
5537.2133265518 886671333.33333 
5592.5854598173    857872500 
5648.5113144155    824725000 
5704.9964275597    736684000 
5762.0463918353 707607333.33333 
5819.6668557536 686751666.66667 
5877.8635243112    672018000 
5936.6421595543    661675000 
5996.0085811498 649719333.33333 
6055.9686669613 629132333.33333 
6116.5283536309 606348333.33333 
6177.6936371672 584423666.66667 
6239.4705735389 563805666.66667 
6301.8652792743 542450333.33333 
6364.883932067 522544333.33333 
6428.5327713877    502593750 
6492.8180991016 477336333.33333 
6557.7462800926 453288333.33333 
6623.3237428935 448747333.33333 
6689.5569803225    429646250 
6756.4525501257    414546000 
6824.0170756269    396672750 
6892.2572463832    382855000 
6961.179818847    368238500 
7030.7916170355 354111666.66667 
7101.0995332059    339814750 
7172.1105285379 327444333.33333 
7243.8316338233    316295250 
7316.2699501615    304784000 
7389.4326496631    293623000 
7463.3269761598    281677250 
7537.9602459214    268756500 
7613.3398483806 260815666.66667 
7689.4732468644    251494750 
7766.367979333    241907000 
7844.0316591264    232343750 
7922.4719757176    223473000 
8001.6966954748    214970500 
8081.7136624296    206865750 
8162.5307990539    193519000 
8244.1561070444    182216500 
8326.5976681148    175744500 
8409.863644796    169168800 
8493.9622812439    163300000 
8578.9019040564    158687500 
8664.6909230969    153626000 
8751.3378323279    149937500 
8838.8512106512    144403000 
8927.2397227577    139747600 
9016.5121199853    134752500 
9106.6772411851    130625800 
9197.744013597    122902250 
9289.721453733    120313000 
9382.6186682703    116236200 
9476.444854953    109134000 
9571.2093035025    107404250 
9666.9213965375    103562800 
9763.5906105029     99443540 
9861.226516608     95715300 
9959.838781774 91485306.666667 
10059.437169592     86635650 
10160.031541288     85459450 
10261.631856701     82206350 
10364.248175268     78917250 
10467.89065702     76261350 
10572.56956359     72803400 
10678.295259226     69524700 
10785.078211819     66948150 
10892.928993937     62956550 
11001.858283876     62385150 
11111.876866715     60234450 
11222.995635382     57662100 
11335.225591736     55214100 
11448.577847653     53347950 
11563.06362613     50689800 
11678.694262391     49007550 
11795.481205015     47391050 
11913.436017065     45468500 
12032.570377236     43643900 
12152.896081008     42256800 
12274.425041818 40593566.666667 
12397.169292236     39006600 
12521.140985159     37499200 
12646.35239501     36059900 
12772.81591896     34048600 
12900.54407815 33136166.666667 
13029.549518932     31903600 
13159.845014121     30729800 
13291.443464262     29606900 
13424.357898905 28537033.333333 
13558.601477894 27315433.333333 
13694.187492673 26156533.333333 
13831.129367599     25236500 
13969.440661275 24360166.666667 
14109.135067888     23354800 
14250.226418567     22397600 
14392.728682753 21497666.666667 
14536.65596958     20641590 
14682.022529276     19732000 
14828.842754569 19051533.333333 
14977.131182115 18311733.333333 
15126.902493936 17608666.666667 
15278.171518875     16936300 
15430.953234064 16294866.666667 
15585.262766404     15685000 
15741.115394068     15108000 
15898.526548009 14496428.571429 
16057.511813489     13907300 
16218.086931624     13442550 
16380.26780094     12897500 
16544.07047895     12521150 
16709.511183739     11857800 
16876.606295577     11524900 
17045.372358532     11127650 
17215.826082118     10542900 
17387.984342939     10142050 
17561.864186368      9814250 
17737.482828232      9490245 
17914.857656514      9077600 
18094.006233079      8587300 
18274.94629541      8318235 
18457.695758364      8054580 
18642.272715948      7631605 
18828.695443107      7476900 
19016.982397539      7171290 
19207.152221514      6876490 
19399.223743729      6514970 
19593.215981166      6341180 
19789.148140978      6091110 
19987.039622388      5853465 
20186.910018612      5627150 
20388.779118798      5411420 
20592.666909986      5203090 
20798.593579086      5010430 
21006.579514877      4823840 
21216.645310025      4646165 
21428.811763126      4474010 
21643.099880757 4228623.3333333 
21859.530879564      4084285 
22078.12618836      3939560 
22298.907450244      3801085 
22521.896524746      3668710 
22747.115489993      3513780 
22974.586644893      3365350 
23204.332511342      3251595 
23436.375836456 3116253.3333333 
23670.73959482      2987445 
23907.446990769      2889300 
24146.521460676      2772330 
24387.986675283      2661040 
24631.866542036 2555383.3333333 
24878.185207456      2454785 
25126.967059531 2359326.6666667 
25378.236730126      2268150 
25632.019097427 2181133.3333333 
25888.339288402      2097875 
26147.222681286 1991713.3333333 
26408.694908098 1930146.6666667 
26672.781857179      1854545 
26939.509675751 1791853.3333333 
27208.904772509 1714343.3333333 
27480.993820234 1635526.6666667 
27755.803758436      1583260 
28033.361796021 1527873.3333333 
28313.695413981      1464430 
28596.832368121 1396353.3333333 
28882.800691802 1347143.3333333 
29171.62869872      1292890 
29463.344985707 1241346.6666667 
29757.978435564      1192310 
30055.55821992      1140250 
30356.113802119      1097940 
30659.67494014      1059070 
30966.271689541 1018813.3333333 
31275.934406437 980459.33333333 
31588.693750501 943890.66666667 
31904.580688006       910121 
32223.626494886     870324.5 
32545.862759835       838693 
32871.321387434       801275 
33200.034601308     770928.5 
33532.034947321       743749 
33867.355296794     717851.5 
34206.028849762       684985 
34548.08913826       661513 
34893.570029642     639109.5 
35242.505729939       610647 
35594.930787238       583760 
35950.880095111     558309.5 
36310.388896062       540076 
36673.492785022       522682 
37040.227712872     498268.5 
37410.629990001     476235.5 
37784.736289901     459547.5 
38162.5836528       440620 
38544.209489328     422672.5 
38929.651584221     405620.5 
39318.948100064     389430.5 
39712.137581064       373910 
40109.258956875     355489.5 
40510.351546444       345379 
40915.455061908       332158 
41324.609612527       318948 
41737.855708653       307482 
42155.234265739     295987.5 
42576.786608396       285031 
43002.55447448       274578 
43432.580019225     263888.5 
43866.905819417       252589 
44305.574877612     241586.5 
44748.630626388     233106.5 
45196.116932652       224959 
45648.078101978       215283 
46104.558882998       203400 
46565.604471828     197669.5 
47031.260516546 190786.66666667 
47501.573121712       182877 
47976.588852929     176845.5 
48456.354741458       169665 
48940.918288873     162827.5 
49430.327471761       156347 
49924.630746479       150163 
50423.877053944       144306 
50928.115824483     137567.5 
51437.396982728       133341 
51951.770952555     128324.5 
52471.288662081 123502.66666667 
52996.001548702 118002.33333333 
53525.961564189       113643 
54061.221179831 109496.33333333 
54601.833391629 104757.66666667 
55147.851725545     100996.5 
55699.330242801 97414.366666667 
56256.323545229      93315.6 
56818.886780681      89428.1 
57387.075648488 85743.433333333 
57960.946404973 82249.566666667 
58540.555869022        78299 
59125.961427713      75656.2 
59717.22104199      72777.2 
60314.39325241 69922.766666667 
60917.537184934      67206.5 
61526.712556783 64620.566666667 
62141.979682351 62148.666666667 
62763.399479174 59703.433333333 
63391.033473966      57571.5 
64024.943808706 54994.685714286 
64665.193246793      53067.8 
65311.845179261      51143.1 
65964.963631053      48704.6 
66624.613267364      46965.8 
67290.859400038      45185.8 
67963.767994038      43213.1 
68643.405673978      41714.9 
69329.839730718      40286.7 
70023.138128025     38472.85 
70723.369509305      36759.2 
71430.603204399      35532.9 
72144.909236443      34363.1 
72866.358328807     32873.45 
73595.021912095     31456.95 
74330.972131216      29469.9 
75074.281852528        28831 
75825.024671053      27955.5 
76583.274917764     27087.05 
77349.107666942      25977.7 
78122.598743611     24925.25 
78903.824731047      23925.1 
79692.862978358      22974.5 
80489.791608141     22070.55 
81294.689524223     21209.85 
82107.636419465      20391.9 
82928.712783659      19612.2 
83757.999911496     18869.35 
84595.579910611 17990.866666667 
85441.535709717     17160.05 
86295.951066814     16517.65 
87158.910577482      15817.2 
88030.499683257      15355.8 
88910.80468009      14807.6 
89799.912726891 14157.033333333 
90697.91185416     13539.75 
91604.890972701      13070.7 
92520.939882428      12513.3 
93446.149281253     11957.95 
94380.610774065     11580.55 
95324.416881806 11101.033333333 
96277.661050624      10644.4 
97240.43766113 10212.566666667 
98212.842037741      9800.77 
99194.970458119     9486.725 
100186.9201627      9259.12 
199060.83304441      566.329 
399467.9878358      34.2519 
594753.39981818      6.63213 
793700.71765891      2.06831 
997811.18987739     0.837548 
1193529.3359837     0.400094 
1399507.0114645     0.214217 
