#  WAVELENGTH	        FLUX	
#  (ANGSTROM)	(ERG/CM2/S/A)	
############	############	
429.23803031605  8.46431E-25 
437.8657147254  5.54769E-24 
446.66681559138  2.81639E-23 
455.64481858477  1.14052E-22 
469.4513122327  5.04979E-22 
478.88728360858  2.09278E-21 
488.51291800911  8.15939E-21 
498.3320276611  2.99981E-20 
503.31534793771  8.47612E-20 
508.34850141708  1.98609E-19 
518.56630629557  5.13754E-19 
528.98948905211  1.62508E-18 
539.62217778206  4.83523E-18 
545.01839955988  1.39596E-17 
555.97326939103  3.84682E-17 
567.14833210579  1.02024E-16 
578.54801358112  2.58022E-16 
584.33349371693  6.44749E-16 
596.07859694064  1.54177E-15 
608.05977673914  3.57766E-15 
614.14037450653  8.05353E-15 
626.48459603412   1.7632E-14 
639.0769364144   3.7606E-14 
645.46770577855  7.82021E-14 
651.92238283633  1.38027E-13 
658.44160666469  2.23794E-13 
671.67628295866  4.39169E-13 
678.39304578824  8.43904E-13 
692.02874600859  1.58686E-12 
698.94903346867  2.91129E-12 
712.99790904139   5.6105E-12 
720.12788813181  9.95296E-12 
734.60245868325  1.64284E-11 
741.94848327009  2.82114E-11 
749.36796810279     4.77E-11 
764.43026426165  7.95463E-11 
772.07456690427  1.30477E-10 
779.79531257331   2.1146E-10 
787.59326569905   3.3414E-10 
803.4238903396  5.29541E-10 
811.45812924299  8.28129E-10 
819.57271053542   1.27445E-9 
827.76843764078   1.93881E-9 
844.40658323736    2.9165E-9 
852.85064906973   4.34168E-9 
861.37915556043   6.39343E-9 
869.99294711603   9.29542E-9 
878.69287658719   1.34598E-8 
887.47980535306    1.9263E-8 
896.3546034066   2.73036E-8 
914.37133093507   1.72435E-5 
923.51504424442   5.92687E-5 
932.75019468686   8.48889E-5 
942.07769663373  0.000120867 
951.49847360007  0.000177657 
961.01345833607  0.000249816 
970.62359291943  0.000345934 
980.32982884862  0.000477366 
990.13312713711  0.000652831 
1000.0344584085  0.000910248 
1010.0348029926   0.00123083 
1020.1351510225   0.00162436 
1030.3365025327   0.00221595 
1040.639867558   0.00294529 
1051.0462662336    0.0038911 
1061.556728896   0.00510544 
1072.1722961849   0.00668684 
1082.8940191468   0.00870507 
1093.7229593382    0.0112332 
1104.6601889316    0.0687862 
1115.7067908209      0.15992 
1126.8638587291     0.237606 
1138.1324973164     0.313475 
1149.5138222896     0.361924 
1161.0089605125     0.501244 
1172.6190501176     0.634966 
1184.3452406188     0.606669 
1196.188693025     0.574738 
1208.1505799552     0.185322 
1220.2320857548     0.733038 
1232.4344066123      1.50509 
1244.7587506785      2.74559 
1257.2063381852      3.24507 
1269.7784015671      4.14289 
1282.4761855828     5.500865 
1295.3009474386      6.11807 
1308.253956913      7.72316 
1321.3364964821      8.35851 
1334.5498614469    10.103305 
1347.8953600614      12.2653 
1361.374313662      13.2725 
1374.9880567986     15.02975 
1388.7379373666      17.4602 
1402.6253167403     22.02355 
1416.6515699077      26.3389 
1430.8180856068 33.223352941176 
1445.1262664628 38.437530769231 
1459.5775291275      48.2063 
1474.1733044187      52.0578 
1488.9150374629      72.4074 
1503.8041878376 80.200186363636 
1518.8422297159      97.2092 
1534.0306520131      236.801 
1549.3709585332       367.86 
1564.8646681186      458.579 
1580.5133147997      726.168 
1596.3184479477      839.284 
1612.2816324272      965.205 
1628.4044487515      1167.44 
1644.688493239     1286.735 
1661.1353781714 1747.9472727273 
1677.7467319531      3266.39 
1694.5241992726      5443.44 
1711.4694412654     7457.295 
1728.584135678     11725.55 
1745.8699770348      18706.7 
1763.3286768051      16129.8 
1780.9619635732     27330.55 
1798.7715832089     26293.75 
1816.759299041      28750.5 
1834.9268920314     27781.65 
1853.2761609517     41206.35 
1871.8089225613     50292.55 
1890.5270117869      62485.6 
1909.4322819047     63913.65 
1928.5266047238      60821.6 
1947.811870771     100618.5 
1967.2899894787 100439.28235294 
1986.9628893735 119889.9047619 
2006.8325182673     121301.5 
2026.9008434499     169719.5 
2047.1698518844       171028 
2067.6415504033     222978.9 
2088.3179659073     507683.5 
2109.2011455664       807359 
2130.293157022       856732 
2151.5960885923     928044.5 
2173.1120494782    1038154.5 
2194.843169973 1011842.6666667 
2216.7916016727    1147605.5 
2238.9595176894    1060548.5 
2261.3491128663     855165.5 
2283.962603995 1182764.3333333 
2306.8022300349    1025111.5 
2329.8702523353     518771.5 
2353.1689548586 675254.66666667 
2376.7006444072       381486 
2400.4676508513       498150 
2424.4723273598 1192303.3333333 
2448.7170506334      1365405 
2473.2042211397 839374.33333333 
2497.9362633511 851671.86956522 
2522.9156259846 503737.7037037 
2548.1447822445      1155075 
2573.6262300669 1393726.6666667 
2599.3624923676 1058252.3333333 
2625.3561172913      3000935 
2651.6096784642 3566396.6666667 
2678.1257752488      3279180 
2704.9070330013      2657500 
2731.9561033313 1805186.6666667 
2759.2756643647 2111213.3333333 
2786.8684210083     595161.5 
2814.7371052184 3208543.3333333 
2842.8844762706 2332353.3333333 
2871.3133210333      4345740 
2900.0264542436      6114000 
2929.026718786      5307465 
2958.3169859739      5766540 
2987.9001558336      5800835 
3017.779157392      6159240 
3047.9569489659      6413445 
3078.4365184556      6388340 
3109.2208836401      6645815 
3140.3130924765      6480630 
3171.7162234013      5937450 
3203.4333856353      6044355 
3235.4677194916      7096630 
3267.8223966866      7994835 
3300.5006206534      7779795 
3333.50562686      7605760 
3366.8406831286      6727610 
3400.5090899598      7231055 
3434.5141808594      7685270 
3468.859322668      8013960 
3503.5479158947      8264875 
3538.5833950537      8205245 
3573.9692290042      7244870 
3609.7089212942      7868838 
3645.8060105072 9022866.6666667 
3682.2640706123      8939135 
3719.0867113184      7959995 
3756.2775784316      9793495 
3793.8403542159      8783820 
3831.778757758      9611735 
3870.0965453356      9381860 
3908.797510789      8586005 
3947.8854858969      8223755 
3987.3643407558     12971550 
4027.2379841634     13165100 
4067.510364005     13135500 
4108.1854676451     13130200 
4149.2673223215 13815933.333333 
4190.7599955447     13215950 
4232.6675955002     12935950 
4274.9942714552     10823750 
4317.7442141697     12383750 
4360.9216563114     13468000 
4404.5308728746     13726250 
4448.5761816033     14208700 
4493.0619434193     14936900 
4537.9925628535     14993300 
4583.3724884821     14700250 
4629.2062133669     14780200 
4675.4982755006     14304900 
4722.2532582556     14838250 
4769.4757908381 14750066.666667 
4817.1705487465     14062250 
4865.342254234     13155000 
4913.9956767763     13925950 
4963.1356335441     13463000 
5012.7669898795     13475000 
5062.8946597783 13685266.666667 
5113.5236063761     13081700 
5164.6588424398 12231766.666667 
5216.3054308642     13071650 
5268.4684851729 12713433.333333 
5321.1531700246     12680900 
5374.3647017249     12560700 
5428.1083487421 12772266.666667 
5482.3894322295     12550400 
5537.2133265518 12387766.666667 
5592.5854598173     12414900 
5648.5113144155     12178700 
5704.9964275597 12248933.333333 
5762.0463918353     12115800 
5819.6668557536     12061200 
5877.8635243112     11618500 
5936.6421595543 11689466.666667 
5996.0085811498 11438333.333333 
6055.9686669613     11268400 
6116.5283536309 10674066.666667 
6177.6936371672     10872700 
6239.4705735389 10626133.333333 
6301.8652792743     10436900 
6364.883932067 10320266.666667 
6428.5327713877     10084770 
6492.8180991016      9855320 
6557.7462800926 9276906.6666667 
6623.3237428935 9734033.3333333 
6689.5569803225      9586725 
6756.4525501257      9393130 
6824.0170756269      9219405 
6892.2572463832      9058410 
6961.179818847      8840050 
7030.7916170355      8711350 
7101.0995332059      8483900 
7172.1105285379      8259750 
7243.8316338233      8173010 
7316.2699501615 8076346.6666667 
7389.4326496631      7801655 
7463.3269761598      7751090 
7537.9602459214    7606702.5 
7613.3398483806      7438760 
7689.4732468644      7296020 
7766.367979333      7183725 
7844.0316591264    7041592.5 
7922.4719757176    6855032.5 
8001.6966954748      6736690 
8081.7136624296    6625167.5 
8162.5307990539    6405157.5 
8244.1561070444    6335567.5 
8326.5976681148      6180655 
8409.863644796      6027722 
8493.9622812439      5576935 
8578.9019040564    5761447.5 
8664.6909230969      5430446 
8751.3378323279    5537167.5 
8838.8512106512      5371480 
8927.2397227577      5271100 
9016.5121199853    5165912.5 
9106.6772411851      5139256 
9197.744013597    4825602.5 
9289.721453733      4937648 
9382.6186682703      4754144 
9476.444854953      4588330 
9571.2093035025    4567912.5 
9666.9213965375      4483716 
9763.5906105029      4398986 
9861.226516608      4288586 
9959.838781774      4182518 
10059.437169592      4038860 
10160.031541288      4003035 
10261.631856701      3933470 
10364.248175268      3842230 
10467.89065702      3737065 
10572.56956359 3613656.6666667 
10678.295259226      3509780 
10785.078211819      3397010 
10892.928993937      3241445 
11001.858283876      3304585 
11111.876866715      3230955 
11222.995635382 3130363.3333333 
11335.225591736      3040820 
11448.577847653      3020605 
11563.06362613 2905556.6666667 
11678.694262391      2843610 
11795.481205015      2761235 
11913.436017065 2711153.3333333 
12032.570377236      2639645 
12152.896081008      2622530 
12274.425041818 2549063.3333333 
12397.169292236      2490290 
12521.140985159 2422446.6666667 
12646.35239501      2365065 
12772.81591896      2230450 
12900.54407815      2241190 
13029.549518932      2189380 
13159.845014121      2133620 
13291.443464262      2088985 
13424.357898905 2047503.3333333 
13558.601477894      1978640 
13694.187492673 1924873.3333333 
13831.129367599      1891030 
13969.440661275 1843356.6666667 
14109.135067888 1785863.3333333 
14250.226418567      1737540 
14392.728682753 1673493.3333333 
14536.65596958 1647308.3333333 
14682.022529276      1590580 
14828.842754569      1552400 
14977.131182115      1501620 
15126.902493936      1482610 
15278.171518875      1441750 
15430.953234064 1399153.3333333 
15585.262766404      1362370 
15741.115394068 1293666.6666667 
15898.526548009 1277138.5714286 
16057.511813489      1228530 
16218.086931624      1211375 
16380.26780094      1150000 
16544.07047895      1152950 
16709.511183739      1071115 
16876.606295577      1078390 
17045.372358532      1037175 
17215.826082118     958670.5 
17387.984342939       946583 
17561.864186368       925903 
17737.482828232     900636.5 
17914.857656514       865430 
18094.006233079     799910.5 
18274.94629541     794937.5 
18457.695758364       773644 
18642.272715948       719301 
18828.695443107       711632 
19016.982397539     697614.5 
19207.152221514       666692 
19399.223743729       621462 
19593.215981166       620185 
19789.148140978       600628 
19987.039622388     582646.5 
20186.910018612       556779 
20388.779118798       542037 
20592.666909986       520411 
20798.593579086     501782.5 
21006.579514877       486265 
21216.645310025     469046.5 
21428.811763126     453572.5 
21643.099880757 422591.33333333 
21859.530879564       416439 
22078.12618836     403745.5 
22298.907450244     390596.5 
22521.896524746     376287.5 
22747.115489993 361709.66666667 
22974.586644893     348249.5 
23204.332511342     336446.5 
23436.375836456 324128.66666667 
23670.73959482       309260 
23907.446990769       301730 
24146.521460676       289047 
24387.986675283     277613.5 
24631.866542036 267443.66666667 
24878.185207456     258295.5 
25126.967059531 249293.33333333 
25378.236730126     239143.5 
25632.019097427       230502 
25888.339288402     223251.5 
26147.222681286 210203.33333333 
26408.694908098 205238.33333333 
26672.781857179       198791 
26939.509675751 193221.33333333 
27208.904772509 185388.66666667 
27480.993820234 176373.33333333 
27755.803758436       172104 
28033.361796021 166569.33333333 
28313.695413981 159899.66666667 
28596.832368121 152017.33333333 
28882.800691802 147839.66666667 
29171.62869872 141969.66666667 
29463.344985707 136876.33333333 
29757.978435564       131602 
30055.55821992 125708.66666667 
30356.113802119 121445.66666667 
30659.67494014 117524.33333333 
30966.271689541 113082.66666667 
31275.934406437 109230.66666667 
31588.693750501 105388.66666667 
31904.580688006     101862.2 
32223.626494886     97591.15 
32545.862759835      94128.8 
32871.321387434      89728.5 
33200.034601308     86698.35 
33532.034947321      83722.7 
33867.355296794     80830.95 
34206.028849762      77622.4 
34548.08913826      75074.6 
34893.570029642      72695.9 
35242.505729939      69552.9 
35594.930787238      66567.1 
35950.880095111      63926.7 
36310.388896062      61628.6 
36673.492785022      59603.7 
37040.227712872      56927.6 
37410.629990001        54411 
37784.736289901      52782.5 
38162.5836528      50888.7 
38544.209489328     48778.95 
38929.651584221     47008.65 
39318.948100064     45124.15 
39712.137581064      43246.7 
40109.258956875     41419.05 
40510.351546444      40194.8 
40915.455061908     38832.15 
41324.609612527      37296.7 
41737.855708653     35928.75 
42155.234265739      34769.8 
42576.786608396     33458.95 
43002.55447448      32040.3 
43432.580019225     30594.45 
43866.905819417 29232.133333333 
44305.574877612     27924.35 
44748.630626388      27017.6 
45196.116932652     26016.95 
45648.078101978 24977.933333333 
46104.558882998      23814.8 
46565.604471828      23175.3 
47031.260516546      22383.6 
47501.573121712      21507.9 
47976.588852929      20832.8 
48456.354741458 20031.766666667 
48940.918288873     19270.95 
49430.327471761 18538.633333333 
49924.630746479      17841.7 
50423.877053944 17166.666666667 
50928.115824483     16455.55 
51437.396982728      15941.9 
51951.770952555      15337.3 
52471.288662081      14811.4 
52996.001548702      14181.3 
53525.961564189     13671.25 
54061.221179831 13202.466666667 
54601.833391629      12656.7 
55147.851725545      12233.7 
55699.330242801 11815.233333333 
56256.323545229 11353.566666667 
56818.886780681      10899.5 
57387.075648488 10474.433333333 
57960.946404973 10069.003333333 
58540.555869022       9638.6 
59125.961427713 9293.2333333333 
59717.22104199 8951.6833333333 
60314.39325241      8612.53 
60917.537184934 8285.9233333333 
61526.712556783      7988.48 
62141.979682351 7680.8433333333 
62763.399479174 7403.6233333333 
63391.033473966 7144.2033333333 
64024.943808706 6833.2671428571 
64665.193246793      6596.39 
65311.845179261      6373.56 
65964.963631053      6078.05 
66624.613267364      5866.13 
67290.859400038     5660.575 
67963.767994038     5411.765 
68643.405673978      5229.28 
69329.839730718     5055.175 
70023.138128025      4832.07 
70723.369509305     4625.885 
71430.603204399      4475.45 
72144.909236443      4330.44 
72866.358328807      4148.86 
73595.021912095     3975.655 
74330.972131216     3785.945 
75074.281852528     3655.415 
75825.024671053      3544.42 
76583.274917764      3436.57 
77349.107666942     3300.685 
78122.598743611     3170.425 
78903.824731047      3046.34 
79692.862978358     2927.645 
80489.791608141     2815.185 
81294.689524223     2706.785 
82107.636419465     2606.935 
82928.712783659     2508.825 
83757.999911496      2416.46 
84595.579910611       2307.3 
85441.535709717      2203.14 
86295.951066814     2124.605 
87158.910577482      2046.75 
88030.499683257     1976.005 
88910.80468009     1907.425 
89799.912726891      1825.52 
90697.91185416      1747.41 
91604.890972701       1689.4 
92520.939882428      1619.03 
93446.149281253      1551.84 
94380.610774065      1501.05 
95324.416881806 1440.0066666667 
96277.661050624      1382.45 
97240.43766113      1326.81 
98212.842037741      1275.31 
99194.970458119     1235.075 
100186.9201627      1206.28 
199060.83304441      77.7317 
399467.9878358      4.86263 
594753.39981818     0.954698 
793700.71765891     0.300143 
997811.18987739     0.122211 
1193529.3359837    0.0586208 
1399507.0114645    0.0314896 
