#  WAVELENGTH	        FLUX	
#  (ANGSTROM)	(ERG/CM2/S/A)	
############	############	
584.33349371693  3.46827E-25 
596.07859694064  1.18105E-24 
608.05977673914  3.85527E-24 
614.14037450653  1.20801E-23 
626.48459603412  3.64287E-23 
639.0769364144  1.05965E-22 
645.46770577855   2.9763E-22 
651.92238283633  6.63806E-22 
658.44160666469  1.31576E-21 
671.67628295866  3.41056E-21 
678.39304578824  8.58597E-21 
692.02874600859  2.09952E-20 
698.94903346867  4.98291E-20 
712.99790904139  1.25859E-19 
720.12788813181  2.83987E-19 
734.60245868325  5.78926E-19 
741.94848327009  1.24974E-18 
749.36796810279  2.64024E-18 
764.43026426165  5.46474E-18 
772.07456690427  1.10731E-17 
779.79531257331  2.20301E-17 
787.59326569905  4.26815E-17 
803.4238903396  8.21623E-17 
811.45812924299  1.55184E-16 
819.57271053542  2.87652E-16 
827.76843764078  5.24658E-16 
844.40658323736  9.42269E-16 
852.85064906973  1.66699E-15 
861.37915556043  2.90625E-15 
869.99294711603  4.98945E-15 
878.69287658719  8.48002E-15 
887.47980535306  1.42062E-14 
896.3546034066  2.34881E-14 
914.37133093507  7.26664E-11 
923.51504424442  2.86802E-10 
932.75019468686  4.17386E-10 
942.07769663373  6.14311E-10 
951.49847360007   9.9112E-10 
961.01345833607   1.71891E-9 
970.62359291943   2.29971E-9 
980.32982884862   3.75268E-9 
990.13312713711   5.67249E-9 
1000.0344584085   8.19126E-9 
1010.0348029926   1.20198E-8 
1020.1351510225   1.63727E-8 
1030.3365025327   3.03879E-8 
1040.639867558    4.3261E-8 
1051.0462662336   5.37666E-8 
1061.556728896   9.01482E-8 
1072.1722961849    1.2472E-7 
1082.8940191468   1.82118E-7 
1093.7229593382    2.3222E-7 
1104.6601889316  3.718165E-7 
1115.7067908209   6.74476E-7 
1126.8638587291   1.02191E-6 
1138.1324973164   1.43686E-6 
1149.5138222896   1.94196E-6 
1161.0089605125   2.54724E-6 
1172.6190501176    3.5574E-6 
1184.3452406188  5.159965E-6 
1196.188693025   6.26446E-6 
1208.1505799552   4.15437E-6 
1220.2320857548   1.01758E-5 
1232.4344066123   1.71013E-5 
1244.7587506785    2.5729E-5 
1257.2063381852   3.71239E-5 
1269.7784015671   4.69145E-5 
1282.4761855828  6.192675E-5 
1295.3009474386   8.27643E-5 
1308.253956913   0.00010788 
1321.3364964821  0.000128154 
1334.5498614469 0.0001767895 
1347.8953600614  0.000250699 
1361.374313662  0.000299933 
1374.9880567986 0.0003907585 
1388.7379373666  0.000514735 
1402.6253167403  0.000752229 
1416.6515699077  0.000979086 
1430.8180856068 0.0013728670588235 
1445.1262664628 0.0016829584615385 
1459.5775291275   0.00234967 
1474.1733044187   0.00283948 
1488.9150374629   0.00415258 
1503.8041878376    0.0050015 
1518.8422297159    0.0071433 
1534.0306520131     0.023861 
1549.3709585332    0.0436288 
1564.8646681186   0.07414765 
1580.5133147997     0.117795 
1596.3184479477     0.120478 
1612.2816324272     0.125038 
1628.4044487515     0.180049 
1644.688493239     0.218844 
1661.1353781714 0.33251172727273 
1677.7467319531     0.717853 
1694.5241992726     1.143405 
1711.4694412654     1.551955 
1728.584135678       2.6007 
1745.8699770348      3.17381 
1763.3286768051      3.51042 
1780.9619635732       5.8028 
1798.7715832089     7.385445 
1816.759299041      9.88569 
1834.9268920314     9.816925 
1853.2761609517     12.19183 
1871.8089225613      16.0473 
1890.5270117869      22.3884 
1909.4322819047      28.1272 
1928.5266047238     25.44915 
1947.811870771 50.104945454545 
1967.2899894787 62.633882352941 
1986.9628893735      66.8534 
2006.8325182673     73.18385 
2026.9008434499      93.7794 
2047.1698518844      109.059 
2067.6415504033    122.41175 
2088.3179659073      243.844 
2109.2011455664      287.439 
2130.293157022      330.422 
2151.5960885923     329.1735 
2173.1120494782       336.03 
2194.843169973      465.159 
2216.7916016727      569.304 
2238.9595176894      787.754 
2261.3491128663      672.427 
2283.962603995 887.33533333333 
2306.8022300349     1308.335 
2329.8702523353     1427.915 
2353.1689548586      1241.54 
2376.7006444072      1784.97 
2400.4676508513     2251.365 
2424.4723273598      3061.47 
2448.7170506334      3643.06 
2473.2042211397      2631.06 
2497.9362633511 3163.6856521739 
2522.9156259846 4917.7922222222 
2548.1447822445     7340.865 
2573.6262300669 8481.1566666667 
2599.3624923676 11734.166666667 
2625.3561172913     23356.75 
2651.6096784642 31194.166666667 
2678.1257752488     26424.45 
2704.9070330013 23529.433333333 
2731.9561033313 22542.433333333 
2759.2756643647 32284.466666667 
2786.8684210083      20528.3 
2814.7371052184      32061.6 
2842.8844762706 17960.903333333 
2871.3133210333 48321.166666667 
2900.0264542436        98141 
2929.026718786     96295.85 
2958.3169859739      89923.3 
2987.9001558336      84974.8 
3017.779157392       118634 
3047.9569489659     161336.5 
3078.4365184556       166319 
3109.2208836401     273388.5 
3140.3130924765     364115.5 
3171.7162234013       313436 
3203.4333856353     298188.5 
3235.4677194916       471906 
3267.8223966866     660168.5 
3300.5006206534       541559 
3333.50562686       491252 
3366.8406831286     321038.5 
3400.5090899598     408768.5 
3434.5141808594       419856 
3468.859322668       514219 
3503.5479158947       654378 
3538.5833950537       563135 
3573.9692290042       396808 
3609.7089212942     650736.6 
3645.8060105072      1009128 
3682.2640706123       815708 
3719.0867113184       381285 
3756.2775784316       792692 
3793.8403542159     485782.5 
3831.778757758       440103 
3870.0965453356       653623 
3908.797510789     652008.5 
3947.8854858969     645000.5 
3987.3643407558      1559100 
4027.2379841634      1437990 
4067.510364005      1551200 
4108.1854676451      1540075 
4149.2673223215 1409413.3333333 
4190.7599955447      1346150 
4232.6675955002      1492835 
4274.9942714552      1271890 
4317.7442141697      1926235 
4360.9216563114      1939760 
4404.5308728746      2000135 
4448.5761816033 2326153.3333333 
4493.0619434193      2678520 
4537.9925628535      2756095 
4583.3724884821      2774355 
4629.2062133669 2833256.6666667 
4675.4982755006      2802540 
4722.2532582556      2836175 
4769.4757908381 2867016.6666667 
4817.1705487465      2981705 
4865.342254234      2804770 
4913.9956767763      2789970 
4963.1356335441 2540863.3333333 
5012.7669898795      2435445 
5062.8946597783 2340623.3333333 
5113.5236063761      2153090 
5164.6588424398 1899913.3333333 
5216.3054308642      2892165 
5268.4684851729 2928826.6666667 
5321.1531700246 2979296.6666667 
5374.3647017249      2943885 
5428.1083487421 3051943.3333333 
5482.3894322295 3094836.6666667 
5537.2133265518 3109346.6666667 
5592.5854598173      3202460 
5648.5113144155 3210026.6666667 
5704.9964275597 3256823.3333333 
5762.0463918353      3266790 
5819.6668557536 3340016.6666667 
5877.8635243112 2955416.6666667 
5936.6421595543      3308020 
5996.0085811498      3292840 
6055.9686669613      3240750 
6116.5283536309 2987013.3333333 
6177.6936371672 3156903.3333333 
6239.4705735389      3089430 
6301.8652792743 3073593.3333333 
6364.883932067 3099723.3333333 
6428.5327713877      3023020 
6492.8180991016 3097793.3333333 
6557.7462800926 3054126.6666667 
6623.3237428935 3058783.3333333 
6689.5569803225    3042592.5 
6756.4525501257 3015753.3333333 
6824.0170756269      2993385 
6892.2572463832 2955646.6666667 
6961.179818847    2903942.5 
7030.7916170355 2880936.6666667 
7101.0995332059      2811485 
7172.1105285379 2763536.6666667 
7243.8316338233    2777727.5 
7316.2699501615 2749833.3333333 
7389.4326496631    2705872.5 
7463.3269761598      2721745 
7537.9602459214      2702510 
7613.3398483806 2656816.6666667 
7689.4732468644      2635300 
7766.367979333      2640265 
7844.0316591264    2586882.5 
7922.4719757176      2509325 
8001.6966954748      2497070 
8081.7136624296    2454072.5 
8162.5307990539    2387952.5 
8244.1561070444      2406855 
8326.5976681148    2320237.5 
8409.863644796      2317610 
8493.9622812439    2172897.5 
8578.9019040564      2282040 
8664.6909230969      2162972 
8751.3378323279    2199402.5 
8838.8512106512    2215457.5 
8927.2397227577      2155506 
9016.5121199853    2149832.5 
9106.6772411851      2085014 
9197.744013597      2014825 
9289.721453733      2019096 
9382.6186682703      1958018 
9476.444854953      1954560 
9571.2093035025    1928322.5 
9666.9213965375      1894206 
9763.5906105029      1881592 
9861.226516608      1876456 
9959.838781774 1858570.6666667 
10059.437169592      1827495 
10160.031541288      1793405 
10261.631856701      1773875 
10364.248175268      1746345 
10467.89065702      1724050 
10572.56956359 1680416.6666667 
10678.295259226      1644125 
10785.078211819      1589800 
10892.928993937      1551245 
11001.858283876      1517770 
11111.876866715      1509720 
11222.995635382 1487126.6666667 
11335.225591736      1450640 
11448.577847653      1465105 
11563.06362613 1426233.3333333 
11678.694262391      1418110 
11795.481205015      1373465 
11913.436017065 1361333.3333333 
12032.570377236      1342650 
12152.896081008      1350765 
12274.425041818      1324130 
12397.169292236      1301955 
12521.140985159 1284093.3333333 
12646.35239501      1260825 
12772.81591896 1234886.6666667 
12900.54407815      1216770 
13029.549518932      1195340 
13159.845014121      1177400 
13291.443464262      1166030 
13424.357898905 1159376.6666667 
13558.601477894 1128516.6666667 
13694.187492673 1121556.6666667 
13831.129367599      1103190 
13969.440661275 1083726.6666667 
14109.135067888 1047143.3333333 
14250.226418567 1026106.6666667 
14392.728682753 1012973.3333333 
14536.65596958 999167.36666667 
14682.022529276       976552 
14828.842754569       965562 
14977.131182115 929596.66666667 
15126.902493936 951500.33333333 
15278.171518875       944714 
15430.953234064 927841.66666667 
15585.262766404 912712.33333333 
15741.115394068 862876.33333333 
15898.526548009 875375.71428571 
16057.511813489       857319 
16218.086931624       848324 
16380.26780094       825763 
16544.07047895       813959 
16709.511183739     772304.5 
16876.606295577       768653 
17045.372358532     731120.5 
17215.826082118       698521 
17387.984342939     678605.5 
17561.864186368       663132 
17737.482828232     643011.5 
17914.857656514       619554 
18094.006233079     592409.5 
18274.94629541       564626 
18457.695758364       554799 
18642.272715948     528772.5 
18828.695443107       509118 
19016.982397539     499512.5 
19207.152221514     477902.5 
19399.223743729       457762 
19593.215981166       441695 
19789.148140978     427937.5 
19987.039622388     421391.5 
20186.910018612       400749 
20388.779118798     391468.5 
20592.666909986     375125.5 
20798.593579086     361077.5 
21006.579514877     352055.5 
21216.645310025     340682.5 
21428.811763126     330567.5 
21643.099880757       313441 
21859.530879564       301047 
22078.12618836     293702.5 
22298.907450244       283445 
22521.896524746     274039.5 
22747.115489993       258345 
22974.586644893     247875.5 
23204.332511342       229289 
23436.375836456 223145.33333333 
23670.73959482       210518 
23907.446990769     210065.5 
24146.521460676 198164.33333333 
24387.986675283       188496 
24631.866542036       184470 
24878.185207456     181288.5 
25126.967059531 173362.33333333 
25378.236730126     167379.5 
25632.019097427 162964.66666667 
25888.339288402       158869 
26147.222681286 153038.66666667 
26408.694908098 146294.33333333 
26672.781857179     144460.5 
26939.509675751 139430.66666667 
27208.904772509 134612.66666667 
27480.993820234       129384 
27755.803758436       125342 
28033.361796021 121326.33333333 
28313.695413981 117216.66666667 
28596.832368121 112854.66666667 
28882.800691802 108772.33333333 
29171.62869872 103769.33333333 
29463.344985707 100650.46666667 
29757.978435564        96795 
30055.55821992      93500.8 
30356.113802119 89896.666666667 
30659.67494014 86617.633333333 
30966.271689541 83545.566666667 
31275.934406437 80575.833333333 
31588.693750501      77848.7 
31904.580688006     75466.44 
32223.626494886      72093.6 
32545.862759835      69727.2 
32871.321387434      67107.5 
33200.034601308     64120.85 
33532.034947321      62240.5 
33867.355296794     59761.35 
34206.028849762     57553.55 
34548.08913826      55773.1 
34893.570029642     54004.95 
35242.505729939      51655.3 
35594.930787238      49367.6 
35950.880095111     47575.75 
36310.388896062      45759.1 
36673.492785022     44266.35 
37040.227712872     42424.95 
37410.629990001     40722.45 
37784.736289901      39310.9 
38162.5836528     37936.35 
38544.209489328     36311.15 
38929.651584221     35084.75 
39318.948100064      33630.7 
39712.137581064     32193.35 
40109.258956875        31154 
40510.351546444      29995.3 
40915.455061908     28978.55 
41324.609612527      27885.3 
41737.855708653     26723.05 
42155.234265739      25967.3 
42576.786608396     24658.05 
43002.55447448     22924.75 
43432.580019225     21472.95 
43866.905819417      20099.8 
44305.574877612     18862.65 
44748.630626388     18240.35 
45196.116932652     17359.25 
45648.078101978 16749.333333333 
46104.558882998      16157.7 
46565.604471828     15828.95 
47031.260516546 15288.766666667 
47501.573121712      14758.8 
47976.588852929      14350.3 
48456.354741458      13838.8 
48940.918288873     13333.75 
49430.327471761      12861.5 
49924.630746479     12379.15 
50423.877053944 11963.733333333 
50928.115824483      11542.2 
51437.396982728 11200.466666667 
51951.770952555     10802.05 
52471.288662081      10499.9 
52996.001548702 10068.936666667 
53525.961564189     9772.425 
54061.221179831      9449.85 
54601.833391629      9098.97 
55147.851725545     8851.745 
55699.330242801      8579.98 
56256.323545229 8262.5633333333 
56818.886780681      7959.59 
57387.075648488 7687.9966666667 
57960.946404973 7401.5166666667 
58540.555869022      7123.02 
59125.961427713      6878.02 
59717.22104199 6637.8266666667 
60314.39325241 6382.4633333333 
60917.537184934      6154.65 
61526.712556783 5954.1166666667 
62141.979682351       5721.9 
62763.399479174         5535 
63391.033473966 5344.0833333333 
64024.943808706 5118.5285714286 
64665.193246793       4944.3 
65311.845179261      4782.65 
65964.963631053     4565.235 
66624.613267364      4408.81 
67290.859400038     4258.625 
67963.767994038      4071.45 
68643.405673978       3936.1 
69329.839730718      3806.72 
70023.138128025     3638.525 
70723.369509305     3485.595 
71430.603204399      3372.82 
72144.909236443      3265.56 
72866.358328807     3128.095 
73595.021912095      2996.94 
74330.972131216     2872.685 
75074.281852528      2755.04 
75825.024671053       2667.8 
76583.274917764      2581.76 
77349.107666942      2474.49 
78122.598743611      2373.31 
78903.824731047      2279.05 
79692.862978358      2189.99 
80489.791608141      2107.67 
81294.689524223      2030.08 
82107.636419465      1957.01 
82928.712783659      1883.72 
83757.999911496      1814.07 
84595.579910611      1732.44 
85441.535709717     1654.905 
86295.951066814     1595.335 
87158.910577482     1539.355 
88030.499683257      1483.82 
88910.80468009     1432.985 
89799.912726891      1372.27 
90697.91185416      1313.21 
91604.890972701      1270.48 
92520.939882428 1218.2533333333 
93446.149281253     1168.335 
94380.610774065      1130.03 
95324.416881806      1085.25 
96277.661050624     1041.355 
97240.43766113 999.89533333333 
98212.842037741       961.61 
99194.970458119     931.5035 
100186.9201627      910.716 
199060.83304441      59.0138 
399467.9878358      3.71056 
594753.39981818     0.730825 
793700.71765891     0.230441 
997811.18987739    0.0940923 
1193529.3359837    0.0452468 
1399507.0114645    0.0243587 
