#  WAVELENGTH	        FLUX	
#  (ANGSTROM)	(ERG/CM2/S/A)	
############	############	
        90.9  1.21201E-10 
    92.72709   4.5403E-10 
95.53681355409   1.56069E-9 
97.457103506527   3.29784E-9 
99.415991287008   7.65412E-9 
101.41425271188   2.12039E-8 
103.45267919139    4.4196E-8 
105.53207804313   8.98874E-8 
107.6532728118   1.99757E-7 
109.81710359532     5.339E-7 
113.14467165136   1.84585E-6 
117.73879903054   6.32607E-6 
120.10534889105   1.85028E-5 
123.7446610678   5.10681E-5 
126.23192875526   9.68132E-5 
127.49424804281  0.000137658 
130.05688242847  0.000239396 
131.35745125276  0.000389781 
132.67102576529   0.00056945 
135.33771338317   0.00109624 
139.43858143639   0.00234858 
142.24129692326   0.00516381 
146.55135046134    0.0117082 
150.99200293167    0.0263138 
154.02694219059    0.0600185 
158.69411256591     0.118082 
161.88386422848     0.212726 
165.13772989948     0.430802 
170.14156825316     0.872327 
171.84298393569      1.42548 
175.2970279128      2.43816 
178.82049817385      4.04678 
180.60870315558      4.96022 
186.0813274699      9.38857 
189.82156215205      18.1813 
193.6369755513      26.6516 
197.52907875988      46.7074 
201.49941324296      69.2401 
203.51440737539      101.522 
209.68109743327      187.565 
216.03464436659      339.467 
218.19499081026      493.431 
222.58071012555      670.825 
224.8065172268        970.2 
229.32512822306       986479 
233.93456330034      2694140 
238.63664802268      3607310 
245.86757709442      5520800 
250.80951539401     10387800 
255.85078665343     14729000 
258.40929451997     19227700 
263.60332133982     83744900 
266.23935455322    110852000 
271.59076557974    143138000 
277.04973996789     96700800 
282.61843974125    253822000 
288.29907038004    423187000 
294.09388169468    332068000 
300.00516871675    635737000 
306.03527260795   2728140000 
315.30844740325   1089800000 
324.86260866801   2022350000 
334.70627057326   1955940000 
344.8482052779   2346910000 
355.29745074603   6312670000 
362.43892950602  15719300000 
373.42119150899  21160700000 
384.7362270329  18520200000 
392.46942519626  36667300000 
404.36164124913  65504400000 
412.48931023824  62069600000 
420.78034537403  58492500000 
429.23803031605  55054800000 
437.8657147254  70233600000 
446.66681559138  71989500000 
455.64481858477  57261000000 
469.4513122327  64615500000 
478.88728360858  78619700000 
488.51291800911  50671200000 
498.3320276611  86767100000 
503.31534793771  59098700000 
508.34850141708 102906000000 
518.56630629557  95194000000 
528.98948905211  85140500000 
539.62217778206  70259700000 
545.01839955988  56435900000 
555.97326939103  81209600000 
567.14833210579 107468000000 
578.54801358112 103686000000 
584.33349371693 104089000000 
596.07859694064  75865200000 
608.05977673914  69895100000 
614.14037450653 100573000000 
626.48459603412  90722000000 
639.0769364144 106572000000 
645.46770577855  97370200000 
651.92238283633  79023500000 
658.44160666469  99970300000 
671.67628295866 107630000000 
678.39304578824  86004200000 
692.02874600859 103233000000 
698.94903346867  78707800000 
712.99790904139 103865000000 
720.12788813181 104440000000 
734.60245868325 104109000000 
741.94848327009  95101400000 
749.36796810279  92982100000 
764.43026426165  79250400000 
772.07456690427  90979800000 
779.79531257331  74707100000 
787.59326569905  87729500000 
803.4238903396  88173500000 
811.45812924299  87520500000 
819.57271053542  87896800000 
827.76843764078  71177300000 
844.40658323736  83025400000 
852.85064906973  77549100000 
861.37915556043  82120600000 
869.99294711603  81720700000 
878.69287658719  79470500000 
887.47980535306  77967900000 
896.3546034066  75086300000 
914.37133093507  61687100000 
923.51504424442  97997400000 
932.75019468686 128512000000 
942.07769663373 135003000000 
951.49847360007 146974000000 
961.01345833607 151542000000 
970.62359291943 114934000000 
980.32982884862 133176000000 
990.13312713711 119470000000 
1000.0344584085 118126000000 
1010.0348029926 122619000000 
1020.1351510225 116050000000 
1030.3365025327 125406000000 
1040.639867558 129003000000 
1051.0462662336 125120000000 
1061.556728896 118733000000 
1072.1722961849 118311000000 
1082.8940191468 111721000000 
1093.7229593382 112973000000 
1104.6601889316 108598000000 
1115.7067908209 101232000000 
1126.8638587291 104785000000 
1138.1324973164 104184000000 
1149.5138222896  97363600000 
1161.0089605125  93162000000 
1172.6190501176  78507300000 
1184.3452406188  85223350000 
1196.188693025  81911400000 
1208.1505799552  72831000000 
1220.2320857548  77267900000 
1232.4344066123  77103300000 
1244.7587506785  75025750000 
1257.2063381852  75933500000 
1269.7784015671  76533700000 
1282.4761855828  75010600000 
1295.3009474386  71772400000 
1308.253956913  71772100000 
1321.3364964821  70298000000 
1334.5498614469  68434950000 
1347.8953600614  64921600000 
1361.374313662  62580800000 
1374.9880567986  59921450000 
1388.7379373666  56822400000 
1402.6253167403  56353050000 
1416.6515699077  53831600000 
1430.8180856068 54968547058.824 
1445.1262664628 52418423076.923 
1459.5775291275  51421900000 
1474.1733044187  51147750000 
1488.9150374629  49608200000 
1503.8041878376 48927136363.636 
1518.8422297159  47444000000 
1534.0306520131  39198000000 
1549.3709585332  36172400000 
1564.8646681186  41242750000 
1580.5133147997  41105450000 
1596.3184479477  38775500000 
1612.2816324272  37762950000 
1628.4044487515  37912400000 
1644.688493239  36999450000 
1661.1353781714 36164704545.455 
1677.7467319531  36774300000 
1694.5241992726  35676650000 
1711.4694412654  33252250000 
1728.584135678  33745850000 
1745.8699770348  32711600000 
1763.3286768051  31872900000 
1780.9619635732  31001700000 
1798.7715832089  29879000000 
1816.759299041  29015200000 
1834.9268920314  28699900000 
1853.2761609517  28023550000 
1871.8089225613  26858450000 
1890.5270117869  26571150000 
1909.4322819047  25402400000 
1928.5266047238  25124950000 
1947.811870771 23967827272.727 
1967.2899894787 23573641176.471 
1986.9628893735 22950157142.857 
2006.8325182673  22321650000 
2026.9008434499  21487600000 
2047.1698518844  16024650000 
2067.6415504033  17329555000 
2088.3179659073  19443000000 
2109.2011455664  19079650000 
2130.293157022  18590750000 
2151.5960885923  17905500000 
2173.1120494782  17565500000 
2194.843169973 17043133333.333 
2216.7916016727  16540400000 
2238.9595176894  15908550000 
2261.3491128663  15632000000 
2283.962603995 14793133333.333 
2306.8022300349  14461350000 
2329.8702523353  14086700000 
2353.1689548586 13456666666.667 
2376.7006444072  12705500000 
2400.4676508513  12564800000 
2424.4723273598 12253533333.333 
2448.7170506334  11795600000 
2473.2042211397 10893896666.667 
2497.9362633511 10792230434.783 
2522.9156259846 10696414814.815 
2548.1447822445  10398000000 
2573.6262300669 10001646666.667 
2599.3624923676 9652446666.6667 
2625.3561172913   9372590000 
2651.6096784642   9047430000 
2678.1257752488   8767040000 
2704.9070330013 8537596666.6667 
2731.9561033313 8166556666.6667 
2759.2756643647 7898693333.3333 
2786.8684210083   7627860000 
2814.7371052184 7429563333.3333 
2842.8844762706 7167306666.6667 
2871.3133210333 6900213333.3333 
2900.0264542436   6706600000 
2929.026718786   6490025000 
2958.3169859739   6244890000 
2987.9001558336   6001695000 
3017.779157392   5761200000 
3047.9569489659   5589645000 
3078.4365184556   5428370000 
3109.2208836401   5251075000 
3140.3130924765   5034670000 
3171.7162234013   4877530000 
3203.4333856353   4682475000 
3235.4677194916   4572130000 
3267.8223966866   4397280000 
3300.5006206534   4221815000 
3333.50562686   4060540000 
3366.8406831286   3957320000 
3400.5090899598   3801145000 
3434.5141808594   3670300000 
3468.859322668   3579465000 
3503.5479158947   3440075000 
3538.5833950537   3302065000 
3573.9692290042   3205470000 
3609.7089212942   3082044000 
3645.8060105072 2682373333.3333 
3682.2640706123   2616585000 
3719.0867113184   2627625000 
3756.2775784316   2638355000 
3793.8403542159   2581285000 
3831.778757758   2557135000 
3870.0965453356   2373170000 
3908.797510789   2427970000 
3947.8854858969   2276465000 
3987.3643407558   2267015000 
4027.2379841634   2173350000 
4067.510364005   2087910000 
4108.1854676451   1979015000 
4149.2673223215   1947750000 
4190.7599955447   1858510000 
4232.6675955002   1805395000 
4274.9942714552   1742790000 
4317.7442141697   1629530000 
4360.9216563114   1621415000 
4404.5308728746   1567625000 
4448.5761816033   1506390000 
4493.0619434193   1441670000 
4537.9925628535   1390465000 
4583.3724884821   1356545000 
4629.2062133669 1290846666.6667 
4675.4982755006   1236420000 
4722.2532582556   1220410000 
4769.4757908381   1173260000 
4817.1705487465   1122905000 
4865.342254234   1066060000 
4913.9956767763   1044600000 
4963.1356335441   1007294000 
5012.7669898795    970408500 
5062.8946597783 936468666.66667 
5113.5236063761    902498500 
5164.6588424398    870965000 
5216.3054308642    839775500 
5268.4684851729 810627666.66667 
5321.1531700246 777690666.66667 
5374.3647017249    745572000 
5428.1083487421    725601000 
5482.3894322295    696161000 
5537.2133265518    667621000 
5592.5854598173    646646000 
5648.5113144155    622204000 
5704.9964275597    561928000 
5762.0463918353    541487000 
5819.6668557536 527519666.66667 
5877.8635243112 519304666.66667 
5936.6421595543 511703666.66667 
5996.0085811498 495956666.66667 
6055.9686669613    477844000 
6116.5283536309 460257333.33333 
6177.6936371672 444105333.33333 
6239.4705735389 428865333.33333 
6301.8652792743 412753333.33333 
6364.883932067 398099333.33333 
6428.5327713877    382912250 
6492.8180991016    365481000 
6557.7462800926 347606333.33333 
6623.3237428935 342584666.66667 
6689.5569803225    328268250 
6756.4525501257 316965666.66667 
6824.0170756269    303945750 
6892.2572463832    293271000 
6961.179818847    282116500 
7030.7916170355    271216000 
7101.0995332059    261114750 
7172.1105285379 251819333.33333 
7243.8316338233    242881000 
7316.2699501615 234248333.33333 
7389.4326496631    225830750 
7463.3269761598    216679250 
7537.9602459214    207411000 
7613.3398483806 200937333.33333 
7689.4732468644    193829750 
7766.367979333    186553250 
7844.0316591264    179257000 
7922.4719757176    172557000 
8001.6966954748    166077000 
8081.7136624296    159908000 
8162.5307990539    150295000 
8244.1561070444    142073250 
8326.5976681148    137066000 
8409.863644796    132357200 
8493.9622812439    127933250 
8578.9019040564    124496250 
8664.6909230969    120287400 
8751.3378323279    117800750 
8838.8512106512    112517750 
8927.2397227577    108840200 
9016.5121199853    105206750 
9106.6772411851    101822800 
9197.744013597     96165250 
9289.721453733     94022900 
9382.6186682703     90639440 
9476.444854953     85598240 
9571.2093035025     83902325 
9666.9213965375     80770620 
9763.5906105029     77684020 
9861.226516608     74810020 
9959.838781774     71761940 
10059.437169592     68146400 
10160.031541288     66881150 
10261.631856701     64328100 
10364.248175268     61867900 
10467.89065702     59753000 
10572.56956359     57066200 
10678.295259226     54524900 
10785.078211819     52482250 
10892.928993937     49754750 
11001.858283876     48966300 
11111.876866715     47305450 
11222.995635382 45299333.333333 
11335.225591736     43393900 
11448.577847653     41943050 
11563.06362613     39999100 
11678.694262391     38564550 
11795.481205015     37300500 
11913.436017065 35773633.333333 
12032.570377236     34376600 
12152.896081008     33295250 
12274.425041818 31996466.666667 
12397.169292236     30757350 
12521.140985159     29574000 
12646.35239501     28453500 
12772.81591896 26999566.666667 
12900.54407815 26156833.333333 
13029.549518932     25197950 
13159.845014121 24278966.666667 
13291.443464262     23398400 
13424.357898905 22558433.333333 
13558.601477894 21600433.333333 
13694.187492673 20691033.333333 
13831.129367599     19968850 
13969.440661275 19280066.666667 
14109.135067888 18490166.666667 
14250.226418567 17739933.333333 
14392.728682753 17029766.666667 
14536.65596958 16356933.333333 
14682.022529276 15672266.666667 
14828.842754569 15105366.666667 
14977.131182115 14521233.333333 
15126.902493936     13966700 
15278.171518875 13433866.666667 
15430.953234064     12926400 
15585.262766404 12441333.333333 
15741.115394068 11985066.666667 
15898.526548009 11519942.857143 
16057.511813489     11019100 
16218.086931624     10690550 
16380.26780094     10217300 
16544.07047895      9961040 
16709.511183739      9428355 
16876.606295577      9173110 
17045.372358532      8853665 
17215.826082118      8390650 
17387.984342939      8084110 
17561.864186368      7818740 
17737.482828232      7562010 
17914.857656514      7235240 
18094.006233079      6856285 
18274.94629541      6632970 
18457.695758364      6422750 
18642.272715948      6109800 
18828.695443107      5966215 
19016.982397539      5720250 
19207.152221514      5491615 
19399.223743729      5213390 
19593.215981166      5063405 
19789.148140978      4864630 
19987.039622388      4675785 
20186.910018612      4495915 
20388.779118798      4323370 
20592.666909986      4159905 
20798.593579086      4005510 
21006.579514877      3855435 
21216.645310025      3715505 
21428.811763126      3580075 
21643.099880757 3391183.3333333 
21859.530879564      3268145 
22078.12618836      3152830 
22298.907450244      3042535 
22521.896524746      2937025 
22747.115489993      2814210 
22974.586644893      2696065 
23204.332511342      2605395 
23436.375836456      2497400 
23670.73959482      2394580 
23907.446990769      2316175 
24146.521460676 2222646.6666667 
24387.986675283      2133915 
24631.866542036 2048823.3333333 
24878.185207456      1967790 
25126.967059531 1891326.6666667 
25378.236730126      1819830 
25632.019097427 1748413.3333333 
25888.339288402      1683655 
26147.222681286 1602526.6666667 
26408.694908098      1549580 
26672.781857179      1484945 
26939.509675751      1439080 
27208.904772509 1377173.3333333 
27480.993820234      1311500 
27755.803758436      1272130 
28033.361796021 1227773.3333333 
28313.695413981      1176970 
28596.832368121 1121256.6666667 
28882.800691802 1083046.6666667 
29171.62869872 1039573.3333333 
29463.344985707 998257.33333333 
29757.978435564       958953 
30055.55821992 916509.66666667 
30356.113802119 883733.33333333 
30659.67494014       852075 
30966.271689541 819821.66666667 
31275.934406437       789045 
31588.693750501       759703 
31904.580688006     732612.6 
32223.626494886       700675 
32545.862759835       675289 
32871.321387434     645869.5 
33200.034601308       620978 
33532.034947321       599150 
33867.355296794       578361 
34206.028849762       551952 
34548.08913826       533076 
34893.570029642       515073 
35242.505729939     492209.5 
35594.930787238       470586 
35950.880095111       450137 
36310.388896062       435479 
36673.492785022       421487 
37040.227712872     402240.5 
37410.629990001       384382 
37784.736289901     370579.5 
38162.5836528       355384 
38544.209489328       341063 
38929.651584221     326928.5 
39318.948100064       314304 
39712.137581064       301634 
40109.258956875     287295.5 
40510.351546444     278886.5 
40915.455061908     268170.5 
41324.609612527     257066.5 
41737.855708653       248302 
42155.234265739       239049 
42576.786608396       230180 
43002.55447448     221808.5 
43432.580019225     212826.5 
43866.905819417       204099 
44305.574877612     195231.5 
44748.630626388     188408.5 
45196.116932652       181840 
45648.078101978 174035.33333333 
46104.558882998     164911.5 
46565.604471828     159712.5 
47031.260516546 154278.33333333 
47501.573121712       147894 
47976.588852929       143031 
48456.354741458       137238 
48940.918288873     131716.5 
49430.327471761 126485.33333333 
49924.630746479       121495 
50423.877053944       116763 
50928.115824483     111251.5 
51437.396982728 107940.33333333 
51951.770952555     103854.5 
52471.288662081 99957.733333333 
52996.001548702      95514.7 
53525.961564189     91979.35 
54061.221179831      88640.9 
54601.833391629 84811.766666667 
55147.851725545     81721.05 
55699.330242801      78877.7 
56256.323545229 75564.966666667 
56818.886780681 72354.233333333 
57387.075648488 69444.333333333 
57960.946404973 66621.366666667 
58540.555869022 63475.266666667 
59125.961427713 61244.366666667 
59717.22104199 58964.566666667 
60314.39325241        56656 
60917.537184934      54458.7 
61526.712556783 52366.766666667 
62141.979682351 50366.533333333 
62763.399479174 48303.866666667 
63391.033473966      46663.8 
64024.943808706 44578.428571429 
64665.193246793      43018.7 
65311.845179261     41460.65 
65964.963631053     39486.55 
66624.613267364      38079.3 
67290.859400038     36599.75 
67963.767994038      35040.8 
68643.405673978      33827.4 
69329.839730718      32671.5 
70023.138128025      31202.7 
70723.369509305     29814.95 
71430.603204399      28822.4 
72144.909236443      27874.1 
72866.358328807      26667.7 
73595.021912095     25518.05 
74330.972131216     23997.05 
75074.281852528     23408.65 
75825.024671053      22683.9 
76583.274917764     21979.95 
77349.107666942     21071.75 
78122.598743611      20228.6 
78903.824731047     19417.75 
79692.862978358      18647.5 
80489.791608141      17915.1 
81294.689524223      17198.8 
82107.636419465      16554.1 
82928.712783659     15922.15 
83757.999911496        15320 
84595.579910611 14607.733333333 
85441.535709717      13933.6 
86295.951066814     13395.55 
87158.910577482     12847.45 
88030.499683257      12470.6 
88910.80468009      12026.1 
89799.912726891 11498.466666667 
90697.91185416     10997.75 
91604.890972701        10617 
92520.939882428      10164.9 
93446.149281253      9697.72 
94380.610774065      9408.25 
95324.416881806 9019.1366666667 
96277.661050624     8648.545 
97240.43766113 8298.1766666667 
98212.842037741      7963.85 
99194.970458119      7709.21 
100186.9201627      7524.43 
199060.83304441      461.542 
399467.9878358      27.9675 
594753.39981818      5.42313 
793700.71765891      1.69352 
997811.18987739     0.686666 
1193529.3359837     0.328411 
1399507.0114645     0.176027 
