#  WAVELENGTH	        FLUX	
#  (ANGSTROM)	(ERG/CM2/S/A)	
############	############	
        90.9  5.10466E-16 
    92.72709  2.65561E-15 
95.53681355409  1.26817E-14 
97.457103506527  3.19246E-14 
99.415991287008  9.20923E-14 
101.41425271188  3.32803E-13 
103.45267919139  8.42033E-13 
105.53207804313  2.06795E-12 
107.6532728118  5.69321E-12 
109.81710359532  1.98569E-11 
113.14467165136  9.64205E-11 
117.73879903054  4.64912E-10 
120.10534889105   1.82613E-9 
123.7446610678   6.67881E-9 
126.23192875526   1.51043E-8 
127.49424804281   2.36688E-8 
130.05688242847   4.80076E-8 
131.35745125276   8.95096E-8 
132.67102576529   1.44605E-7 
135.33771338317   3.34784E-7 
139.43858143639   8.70636E-7 
142.24129692326    2.3635E-6 
146.55135046134   6.81539E-6 
150.99200293167   1.81963E-5 
154.02694219059    5.1022E-5 
158.69411256591  0.000118462 
161.88386422848  0.000242813 
165.13772989948  0.000573641 
170.14156825316   0.00137873 
171.84298393569   0.00253621 
175.2970279128   0.00482774 
178.82049817385   0.00895117 
180.60870315558    0.0116985 
186.0813274699    0.0248599 
189.82156215205    0.0553216 
193.6369755513    0.0870852 
197.52907875988     0.171824 
201.49941324296     0.280999 
203.51440737539     0.439841 
209.68109743327     0.921712 
216.03464436659      1.89951 
218.19499081026      2.95765 
222.58071012555      4.32145 
224.8065172268      6.79953 
229.32512822306      1307.52 
233.93456330034      2841.78 
238.63664802268      4605.26 
245.86757709442      7820.15 
250.80951539401      12674.6 
255.85078665343        17354 
258.40929451997      27725.3 
263.60332133982      41590.2 
266.23935455322        60550 
271.59076557974      83542.9 
277.04973996789       108003 
282.61843974125       216115 
288.29907038004       309524 
294.09388169468       413863 
300.00516871675       587500 
306.03527260795      1211990 
315.30844740325      2408270 
324.86260866801      3498790 
334.70627057326      5926120 
344.8482052779      8998930 
355.29745074603     18976500 
362.43892950602     35393200 
373.42119150899     42879600 
384.7362270329     61011400 
392.46942519626    102594000 
404.36164124913    125264000 
412.48931023824    162945000 
420.78034537403    184669000 
429.23803031605    217705000 
437.8657147254    269393000 
446.66681559138    306385000 
455.64481858477    332524000 
469.4513122327    397657000 
478.88728360858    467331000 
488.51291800911    524913000 
498.3320276611    617297000 
503.31534793771   1113790000 
508.34850141708   8110770000 
518.56630629557   7598270000 
528.98948905211   7051780000 
539.62217778206   6392260000 
545.01839955988   7830250000 
555.97326939103   9415010000 
567.14833210579   9742570000 
578.54801358112   8909140000 
584.33349371693   9562090000 
596.07859694064   8128900000 
608.05977673914   9548450000 
614.14037450653  10908900000 
626.48459603412  10578600000 
639.0769364144  10254300000 
645.46770577855  10485200000 
651.92238283633   9267630000 
658.44160666469  10381200000 
671.67628295866  10973000000 
678.39304578824   9029960000 
692.02874600859  11762300000 
698.94903346867  10005200000 
712.99790904139  12384600000 
720.12788813181  12030800000 
734.60245868325  12003600000 
741.94848327009  11989700000 
749.36796810279  11935900000 
764.43026426165  12182100000 
772.07456690427  12443000000 
779.79531257331  12857900000 
787.59326569905  12770800000 
803.4238903396  12350800000 
811.45812924299  12254900000 
819.57271053542  12860700000 
827.76843764078  10799000000 
844.40658323736  12288700000 
852.85064906973  12144600000 
861.37915556043  12507400000 
869.99294711603  12612900000 
878.69287658719  12875800000 
887.47980535306  12971600000 
896.3546034066  12569200000 
914.37133093507  12504800000 
923.51504424442  33347400000 
932.75019468686  56843900000 
942.07769663373  88771800000 
951.49847360007 101471000000 
961.01345833607 123814000000 
970.62359291943  42820000000 
980.32982884862 104089000000 
990.13312713711  92159500000 
1000.0344584085  98391300000 
1010.0348029926 101742000000 
1020.1351510225  65544200000 
1030.3365025327  95168500000 
1040.639867558 114752000000 
1051.0462662336 107967000000 
1061.556728896  89968900000 
1072.1722961849  95575900000 
1082.8940191468  86000900000 
1093.7229593382  93319700000 
1104.6601889316  87576250000 
1115.7067908209  69578800000 
1126.8638587291  82512500000 
1138.1324973164  77617500000 
1149.5138222896  74776900000 
1161.0089605125  71897100000 
1172.6190501176  46617100000 
1184.3452406188  64399150000 
1196.188693025  58493400000 
1208.1505799552  40089100000 
1220.2320857548  57204000000 
1232.4344066123  62239000000 
1244.7587506785  59626500000 
1257.2063381852  60838100000 
1269.7784015671  62195800000 
1282.4761855828  58835500000 
1295.3009474386  56338500000 
1308.253956913  60055600000 
1321.3364964821  57131100000 
1334.5498614469  55077400000 
1347.8953600614  53867900000 
1361.374313662  51215300000 
1374.9880567986  48723750000 
1388.7379373666  37267800000 
1402.6253167403  41508500000 
1416.6515699077  40097200000 
1430.8180856068 42558029411.765 
1445.1262664628 40870030769.231 
1459.5775291275  38580000000 
1474.1733044187  38610550000 
1488.9150374629  37254600000 
1503.8041878376 34596745454.545 
1518.8422297159  33392700000 
1534.0306520131  26951750000 
1549.3709585332  25041900000 
1564.8646681186  28347700000 
1580.5133147997  29042200000 
1596.3184479477  27744100000 
1612.2816324272  26589000000 
1628.4044487515  27169400000 
1644.688493239  27044250000 
1661.1353781714 26566190909.091 
1677.7467319531  27121400000 
1694.5241992726  25768150000 
1711.4694412654  23844850000 
1728.584135678  23977450000 
1745.8699770348  23506300000 
1763.3286768051  22605850000 
1780.9619635732  22249500000 
1798.7715832089  21506900000 
1816.759299041  20852000000 
1834.9268920314  19924050000 
1853.2761609517  19582100000 
1871.8089225613  18666150000 
1890.5270117869  17676350000 
1909.4322819047  16772450000 
1928.5266047238  17390200000 
1947.811870771 16249881818.182 
1967.2899894787 16713117647.059 
1986.9628893735 15974633333.333 
2006.8325182673  16059100000 
2026.9008434499  15130600000 
2047.1698518844  12638500000 
2067.6415504033  12674005000 
2088.3179659073  13305850000 
2109.2011455664  13831850000 
2130.293157022  13370900000 
2151.5960885923  13033050000 
2173.1120494782  12715950000 
2194.843169973 12412566666.667 
2216.7916016727  11956700000 
2238.9595176894  11504400000 
2261.3491128663  11324700000 
2283.962603995 10457276666.667 
2306.8022300349  10401050000 
2329.8702523353  10146650000 
2353.1689548586   9740880000 
2376.7006444072   9211260000 
2400.4676508513   9112165000 
2424.4723273598 8819076666.6667 
2448.7170506334   8537250000 
2473.2042211397   7703050000 
2497.9362633511 7639237826.087 
2522.9156259846 7655047777.7778 
2548.1447822445   7395805000 
2573.6262300669   7180900000 
2599.3624923676 6919763333.3333 
2625.3561172913   6697150000 
2651.6096784642   6411030000 
2678.1257752488   6205150000 
2704.9070330013   5979380000 
2731.9561033313 5775763333.3333 
2759.2756643647   5602230000 
2786.8684210083   5349600000 
2814.7371052184 5249616666.6667 
2842.8844762706 5079763333.3333 
2871.3133210333 4888756666.6667 
2900.0264542436   4709530000 
2929.026718786   4569030000 
2958.3169859739   4411840000 
2987.9001558336   4216180000 
3017.779157392   4065580000 
3047.9569489659   3968445000 
3078.4365184556   3790430000 
3109.2208836401   3704940000 
3140.3130924765   3537670000 
3171.7162234013   3413410000 
3203.4333856353   3303775000 
3235.4677194916   3216140000 
3267.8223966866   3098090000 
3300.5006206534   2966180000 
3333.50562686   2864590000 
3366.8406831286   2785490000 
3400.5090899598   2678300000 
3434.5141808594   2583070000 
3468.859322668   2509470000 
3503.5479158947   2414940000 
3538.5833950537   2324260000 
3573.9692290042   2238970000 
3609.7089212942   2172640000 
3645.8060105072 2053343333.3333 
3682.2640706123   1968810000 
3719.0867113184   1877790000 
3756.2775784316   1816945000 
3793.8403542159   1782225000 
3831.778757758   1880770000 
3870.0965453356   1568260000 
3908.797510789   1849265000 
3947.8854858969   1610165000 
3987.3643407558   1719090000 
4027.2379841634   1645695000 
4067.510364005   1526705000 
4108.1854676451   1419470000 
4149.2673223215 1490173333.3333 
4190.7599955447   1437555000 
4232.6675955002   1367415000 
4274.9942714552   1307450000 
4317.7442141697   1133770000 
4360.9216563114   1213275000 
4404.5308728746   1196485000 
4448.5761816033 1138053333.3333 
4493.0619434193   1108360000 
4537.9925628535   1073300000 
4583.3724884821   1035450000 
4629.2062133669 977521333.33333 
4675.4982755006    944259500 
4722.2532582556    931100000 
4769.4757908381 899414666.66667 
4817.1705487465    828567500 
4865.342254234    784650000 
4913.9956767763    787657000 
4963.1356335441 766078666.66667 
5012.7669898795    738916500 
5062.8946597783    715279000 
5113.5236063761    686411000 
5164.6588424398 664079333.33333 
5216.3054308642    640302500 
5268.4684851729 617627333.33333 
5321.1531700246    592266000 
5374.3647017249    569815500 
5428.1083487421 552029666.66667 
5482.3894322295 529453333.33333 
5537.2133265518    508286000 
5592.5854598173    491581500 
5648.5113144155 472492666.66667 
5704.9964275597 451671333.33333 
5762.0463918353    434994000 
5819.6668557536    414029000 
5877.8635243112 401412333.33333 
5936.6421595543 388044333.33333 
5996.0085811498 374717666.66667 
6055.9686669613    361551000 
6116.5283536309 347795333.33333 
6177.6936371672 335720666.66667 
6239.4705735389    323477000 
6301.8652792743    311937000 
6364.883932067 301087333.33333 
6428.5327713877    288400750 
6492.8180991016    272282000 
6557.7462800926 253643333.33333 
6623.3237428935    257255000 
6689.5569803225    247227500 
6756.4525501257 238205666.66667 
6824.0170756269    229245250 
6892.2572463832 220473333.33333 
6961.179818847    212250750 
7030.7916170355 203281666.66667 
7101.0995332059    196557500 
7172.1105285379 188930333.33333 
7243.8316338233    182210750 
7316.2699501615 176000333.33333 
7389.4326496631    169723000 
7463.3269761598    162612500 
7537.9602459214    156219000 
7613.3398483806 150855333.33333 
7689.4732468644    145565250 
7766.367979333    139998250 
7844.0316591264    134514250 
7922.4719757176    129456750 
8001.6966954748    124557750 
8081.7136624296    119668000 
8162.5307990539    114865750 
8244.1561070444    110519500 
8326.5976681148    106554500 
8409.863644796    102298600 
8493.9622812439     98166975 
8578.9019040564     94413175 
8664.6909230969     90230040 
8751.3378323279     88120025 
8838.8512106512     83022750 
8927.2397227577     81153640 
9016.5121199853     78275750 
9106.6772411851     77140560 
9197.744013597     70001150 
9289.721453733     71588920 
9382.6186682703     68803380 
9476.444854953     62597000 
9571.2093035025     63336800 
9666.9213965375     61374240 
9763.5906105029     59123920 
9861.226516608     56726500 
9959.838781774     53449260 
10059.437169592     50832200 
10160.031541288     50774200 
10261.631856701     48790300 
10364.248175268     47082700 
10467.89065702     45349600 
10572.56956359 43282633.333333 
10678.295259226     41364000 
10785.078211819     39563000 
10892.928993937     36244000 
11001.858283876     36972700 
11111.876866715     35849350 
11222.995635382 34307033.333333 
11335.225591736     32853550 
11448.577847653     31763150 
11563.06362613     30417300 
11678.694262391     29196550 
11795.481205015     28239000 
11913.436017065 26994933.333333 
12032.570377236     26018900 
12152.896081008     25194150 
12274.425041818     24206800 
12397.169292236     23263250 
12521.140985159 22347433.333333 
12646.35239501     21495150 
12772.81591896 19880066.666667 
12900.54407815     19718700 
13029.549518932     19052350 
13159.845014121     18355200 
13291.443464262     17679250 
13424.357898905     17040700 
13558.601477894 16316733.333333 
13694.187492673 15632333.333333 
13831.129367599     15083450 
13969.440661275 14564866.666667 
14109.135067888 13970366.666667 
14250.226418567 13403033.333333 
14392.728682753 12865433.333333 
14536.65596958 12351773.333333 
14682.022529276     11864400 
14828.842754569 11405233.333333 
14977.131182115 10958933.333333 
15126.902493936     10547500 
15278.171518875 10147066.666667 
15430.953234064      9763530 
15585.262766404 9395006.6666667 
15741.115394068      9042410 
15898.526548009 8682772.8571429 
16057.511813489      8307850 
16218.086931624      8056545 
16380.26780094      7681400 
16544.07047895      7539360 
16709.511183739      7058285 
16876.606295577      6936480 
17045.372358532      6693180 
17215.826082118      6279405 
17387.984342939      6102430 
17561.864186368      5925310 
17737.482828232      5728315 
17914.857656514      5475710 
18094.006233079      5101030 
18274.94629541      5023460 
18457.695758364      4858920 
18642.272715948      4571310 
18828.695443107      4511505 
19016.982397539      4324745 
19207.152221514      4147135 
19399.223743729      3872685 
19593.215981166      3834600 
19789.148140978      3684045 
19987.039622388      3540800 
20186.910018612      3404520 
20388.779118798      3271305 
20592.666909986      3150760 
20798.593579086      3032775 
21006.579514877      2914440 
21216.645310025      2813065 
21428.811763126      2703095 
21643.099880757      2532310 
21859.530879564      2474210 
22078.12618836      2386640 
22298.907450244      2303360 
22521.896524746      2223425 
22747.115489993 2128456.6666667 
22974.586644893      2038120 
23204.332511342      1969800 
23436.375836456 1888193.3333333 
23670.73959482      1810545 
23907.446990769      1751325 
24146.521460676 1680846.6666667 
24387.986675283      1613665 
24631.866542036 1549033.3333333 
24878.185207456      1488850 
25126.967059531      1430910 
25378.236730126      1376230 
25632.019097427      1323080 
25888.339288402      1272175 
26147.222681286      1196040 
26408.694908098 1171013.3333333 
26672.781857179      1122720 
26939.509675751      1090730 
27208.904772509 1042816.6666667 
27480.993820234 990155.33333333 
27755.803758436       964413 
28033.361796021       930744 
28313.695413981 891641.66666667 
28596.832368121       843776 
28882.800691802 820895.66666667 
29171.62869872 788135.33333333 
29463.344985707       756838 
29757.978435564 727064.66666667 
30055.55821992 691114.33333333 
30356.113802119 666381.66666667 
30659.67494014 645857.66666667 
30966.271689541 621583.66666667 
31275.934406437       598316 
31588.693750501       576087 
31904.580688006     555573.4 
32223.626494886       531384 
32545.862759835       511638 
32871.321387434     484753.5 
33200.034601308     470383.5 
33532.034947321       454755 
33867.355296794       438970 
34206.028849762     418949.5 
34548.08913826       404642 
34893.570029642       390992 
35242.505729939       373637 
35594.930787238       357249 
35950.880095111     341736.5 
36310.388896062       330623 
36673.492785022       319931 
37040.227712872     303215.5 
37410.629990001       289948 
37784.736289901       281349 
38162.5836528       269870 
38544.209489328     258954.5 
38929.651584221       248276 
39318.948100064     238734.5 
39712.137581064     228975.5 
40109.258956875       216313 
40510.351546444     211652.5 
40915.455061908     203694.5 
41324.609612527       195179 
41737.855708653       188518 
42155.234265739       181634 
42576.786608396     174862.5 
43002.55447448     168578.5 
43432.580019225     161502.5 
43866.905819417       154945 
44305.574877612     148437.5 
44748.630626388       143281 
45196.116932652       138294 
45648.078101978       132358 
46104.558882998       124104 
46565.604471828     120648.5 
47031.260516546 117329.33333333 
47501.573121712     112527.5 
47976.588852929       108835 
48456.354741458 104437.33333333 
48940.918288873    100244.95 
49430.327471761 96274.366666667 
49924.630746479      92483.9 
50423.877053944      88872.2 
50928.115824483     84119.65 
51437.396982728      82061.1 
51951.770952555      79086.9 
52471.288662081      76128.3 
52996.001548702 72752.433333333 
53525.961564189        70076 
54061.221179831 67530.566666667 
54601.833391629 64620.466666667 
55147.851725545     62310.85 
55699.330242801        60111 
56256.323545229 57593.433333333 
56818.886780681 55174.566666667 
57387.075648488 52939.766666667 
57960.946404973 50796.633333333 
58540.555869022      48097.7 
59125.961427713 46598.533333333 
59717.22104199 44977.266666667 
60314.39325241        43222 
60917.537184934 41550.133333333 
61526.712556783 39957.833333333 
62141.979682351      38407.2 
62763.399479174      36851.6 
63391.033473966 35616.733333333 
64024.943808706 34029.314285714 
64665.193246793      32841.1 
65311.845179261      31655.1 
65964.963631053      30151.7 
66624.613267364      29079.3 
67290.859400038     27895.85 
67963.767994038     26757.25 
68643.405673978        25841 
69329.839730718      24960.2 
70023.138128025      23840.8 
70723.369509305      22783.3 
71430.603204399      22026.2 
72144.909236443      21304.4 
72866.358328807     20384.55 
73595.021912095     19486.05 
74330.972131216      18126.1 
75074.281852528      17857.4 
75825.024671053      17346.7 
76583.274917764      16809.9 
77349.107666942     16124.75 
78122.598743611        15474 
78903.824731047      14855.7 
79692.862978358     14267.85 
80489.791608141     13708.55 
81294.689524223     13167.75 
82107.636419465     12670.25 
82928.712783659     12187.75 
83757.999911496      11728.2 
84595.579910611 11184.366666667 
85441.535709717     10669.65 
86295.951066814      10252.1 
87158.910577482     9787.595 
88030.499683257     9551.465 
88910.80468009       9212.8 
89799.912726891      8809.66 
90697.91185416     8427.015 
91604.890972701      8136.43 
92520.939882428 7789.8066666667 
93446.149281253     7428.195 
94380.610774065     7212.435 
95324.416881806      6915.08 
96277.661050624     6631.605 
97240.43766113 6363.6066666667 
98212.842037741      6108.02 
99194.970458119     5913.075 
100186.9201627      5771.75 
199060.83304441      356.567 
399467.9878358      21.6945 
594753.39981818      4.21008 
793700.71765891      1.31479 
997811.18987739     0.533073 
1193529.3359837     0.254958 
1399507.0114645     0.136682 
