#  WAVELENGTH	        FLUX	
#  (ANGSTROM)	(ERG/CM2/S/A)	
############	############	
        90.9  0.000165295 
    92.72709  0.000461743 
95.53681355409   0.00119307 
97.457103506527   0.00215655 
99.415991287008   0.00415764 
101.41425271188   0.00921583 
103.45267919139    0.0163644 
105.53207804313    0.0285128 
107.6532728118    0.0532716 
109.81710359532      0.11499 
113.14467165136     0.303477 
117.73879903054     0.788247 
120.10534889105      1.82749 
123.7446610678      3.99779 
126.23192875526      6.57034 
127.49424804281      9.04729 
130.05688242847      13.8094 
131.35745125276      20.0377 
132.67102576529      26.8387 
135.33771338317       44.074 
139.43858143639      78.6305 
142.24129692326      140.542 
146.55135046134      248.785 
150.99200293167      465.737 
154.02694219059      854.292 
158.69411256591      1426.82 
161.88386422848      2876.72 
165.13772989948      4835.59 
170.14156825316      7714.23 
171.84298393569      10753.5 
175.2970279128        16062 
178.82049817385        23476 
180.60870315558      25723.6 
186.0813274699      43222.6 
189.82156215205      67274.6 
193.6369755513      95118.5 
197.52907875988       142930 
201.49941324296       171356 
203.51440737539       240363 
209.68109743327       362488 
216.03464436659       538631 
218.19499081026       704839 
222.58071012555       834610 
224.8065172268      1058230 
229.32512822306     74527200 
233.93456330034    295455000 
238.63664802268    447641000 
245.86757709442   1149060000 
250.80951539401   5003810000 
255.85078665343  14261200000 
258.40929451997  11468000000 
263.60332133982  44885800000 
266.23935455322  50348900000 
271.59076557974  60300300000 
277.04973996789  37886300000 
282.61843974125  72841500000 
288.29907038004 115617000000 
294.09388169468  93916000000 
300.00516871675  68829400000 
306.03527260795  80493700000 
315.30844740325  19240400000 
324.86260866801  25469900000 
334.70627057326  17166000000 
344.8482052779  18291500000 
355.29745074603  48379600000 
362.43892950602 111600000000 
373.42119150899 144627000000 
384.7362270329 110583000000 
392.46942519626 201185000000 
404.36164124913 328510000000 
412.48931023824 315460000000 
420.78034537403 275772000000 
429.23803031605 262529000000 
437.8657147254 334634000000 
446.66681559138 334610000000 
455.64481858477 270085000000 
469.4513122327 304403000000 
478.88728360858 346563000000 
488.51291800911 275495000000 
498.3320276611 406656000000 
503.31534793771 320970000000 
508.34850141708 392132000000 
518.56630629557 366769000000 
528.98948905211 337099000000 
539.62217778206 261412000000 
545.01839955988 205514000000 
555.97326939103 275676000000 
567.14833210579 337782000000 
578.54801358112 337737000000 
584.33349371693 331948000000 
596.07859694064 277284000000 
608.05977673914 215448000000 
614.14037450653 288242000000 
626.48459603412 241405000000 
639.0769364144 297273000000 
645.46770577855 272450000000 
651.92238283633 238300000000 
658.44160666469 281067000000 
671.67628295866 279208000000 
678.39304578824 243296000000 
692.02874600859 266342000000 
698.94903346867 229415000000 
712.99790904139 249316000000 
720.12788813181 254045000000 
734.60245868325 246635000000 
741.94848327009 230311000000 
749.36796810279 221157000000 
764.43026426165 188235000000 
772.07456690427 212938000000 
779.79531257331 177873000000 
787.59326569905 199749000000 
803.4238903396 204502000000 
811.45812924299 199180000000 
819.57271053542 196827000000 
827.76843764078 174618000000 
844.40658323736 184882000000 
852.85064906973 170548000000 
861.37915556043 178692000000 
869.99294711603 176815000000 
878.69287658719 169177000000 
887.47980535306 164129000000 
896.3546034066 157463000000 
914.37133093507 118343000000 
923.51504424442 172042000000 
932.75019468686 208747000000 
942.07769663373 222049000000 
951.49847360007 249920000000 
961.01345833607 251026000000 
970.62359291943 206479000000 
980.32982884862 225605000000 
990.13312713711 198159000000 
1000.0344584085 198745000000 
1010.0348029926 200230000000 
1020.1351510225 191961000000 
1030.3365025327 208692000000 
1040.639867558 211802000000 
1051.0462662336 206287000000 
1061.556728896 195751000000 
1072.1722961849 199370000000 
1082.8940191468 184217000000 
1093.7229593382 187836000000 
1104.6601889316 182722500000 
1115.7067908209 175133000000 
1126.8638587291 176073000000 
1138.1324973164 174545000000 
1149.5138222896 166439000000 
1161.0089605125 155319000000 
1172.6190501176 143633000000 
1184.3452406188 145962500000 
1196.188693025 138926000000 
1208.1505799552 121408000000 
1220.2320857548 131156000000 
1232.4344066123 123490000000 
1244.7587506785 120779000000 
1257.2063381852 122472000000 
1269.7784015671 121112000000 
1282.4761855828 118612000000 
1295.3009474386 113349000000 
1308.253956913 110980000000 
1321.3364964821 108219000000 
1334.5498614469 104585000000 
1347.8953600614  98724100000 
1361.374313662  93528400000 
1374.9880567986  89517250000 
1388.7379373666  87748400000 
1402.6253167403  86532250000 
1416.6515699077  84975600000 
1430.8180856068 84720529411.765 
1445.1262664628 80304961538.462 
1459.5775291275  78427500000 
1474.1733044187  78103450000 
1488.9150374629  75488600000 
1503.8041878376 72893413636.364 
1518.8422297159  71460600000 
1534.0306520131  62375700000 
1549.3709585332  58383400000 
1564.8646681186  63583700000 
1580.5133147997  62176200000 
1596.3184479477  59716300000 
1612.2816324272  58291650000 
1628.4044487515  57991600000 
1644.688493239  55591700000 
1661.1353781714 54644359090.909 
1677.7467319531  54755000000 
1694.5241992726  53248550000 
1711.4694412654  49507900000 
1728.584135678  49918900000 
1745.8699770348  48462100000 
1763.3286768051  46925900000 
1780.9619635732  45371150000 
1798.7715832089  43396000000 
1816.759299041  42301300000 
1834.9268920314  41505950000 
1853.2761609517  40340800000 
1871.8089225613  38809350000 
1890.5270117869  38002600000 
1909.4322819047  36328400000 
1928.5266047238  35619250000 
1947.811870771 34162290909.091 
1967.2899894787 33220547058.824 
1986.9628893735 32255914285.714 
2006.8325182673  31290100000 
2026.9008434499  30026750000 
2047.1698518844  22199500000 
2067.6415504033  23255905000 
2088.3179659073  26802200000 
2109.2011455664  26389150000 
2130.293157022  25646750000 
2151.5960885923  24631000000 
2173.1120494782  24135500000 
2194.843169973 23349533333.333 
2216.7916016727  22723850000 
2238.9595176894  21746200000 
2261.3491128663  21401550000 
2283.962603995  20266500000 
2306.8022300349  19742300000 
2329.8702523353  19202250000 
2353.1689548586  18328100000 
2376.7006444072  17273450000 
2400.4676508513  16996300000 
2424.4723273598 16588633333.333 
2448.7170506334  15907100000 
2473.2042211397  15166000000 
2497.9362633511 14556830434.783 
2522.9156259846 14396540740.741 
2548.1447822445  14018450000 
2573.6262300669 13434633333.333 
2599.3624923676 12963666666.667 
2625.3561172913  12571550000 
2651.6096784642  12132500000 
2678.1257752488  11728750000 
2704.9070330013 11413666666.667 
2731.9561033313 10866866666.667 
2759.2756643647  10506800000 
2786.8684210083  10155750000 
2814.7371052184   9853060000 
2842.8844762706   9473900000 
2871.3133210333 9081733333.3333 
2900.0264542436   8862490000 
2929.026718786   8569850000 
2958.3169859739   8242370000 
2987.9001558336   7923800000 
3017.779157392   7602410000 
3047.9569489659   7340465000 
3078.4365184556   7128530000 
3109.2208836401   6881285000 
3140.3130924765   6588955000 
3171.7162234013   6375780000 
3203.4333856353   6112005000 
3235.4677194916   5967400000 
3267.8223966866   5738510000 
3300.5006206534   5502570000 
3333.50562686   5286150000 
3366.8406831286   5137140000 
3400.5090899598   4925425000 
3434.5141808594   4758790000 
3468.859322668   4628165000 
3503.5479158947   4448050000 
3538.5833950537   4264670000 
3573.9692290042   4136180000 
3609.7089212942   3975196000 
3645.8060105072 3420823333.3333 
3682.2640706123   3328730000 
3719.0867113184   3328310000 
3756.2775784316   3356475000 
3793.8403542159   3286235000 
3831.778757758   3265835000 
3870.0965453356   3004700000 
3908.797510789   3095165000 
3947.8854858969   2894265000 
3987.3643407558   2889740000 
4027.2379841634   2766115000 
4067.510364005   2660095000 
4108.1854676451   2512655000 
4149.2673223215 2476646666.6667 
4190.7599955447   2355990000 
4232.6675955002   2291905000 
4274.9942714552   2210450000 
4317.7442141697   2052900000 
4360.9216563114   2051985000 
4404.5308728746   1982870000 
4448.5761816033   1905210000 
4493.0619434193   1824225000 
4537.9925628535   1752080000 
4583.3724884821   1711750000 
4629.2062133669 1630816666.6667 
4675.4982755006   1553240000 
4722.2532582556   1533065000 
4769.4757908381 1471856666.6667 
4817.1705487465   1404715000 
4865.342254234   1334020000 
4913.9956767763   1310265000 
4963.1356335441 1261253333.3333 
5012.7669898795   1214100000 
5062.8946597783 1170033333.3333 
5113.5236063761   1126405000 
5164.6588424398 1087093333.3333 
5216.3054308642   1047710000 
5268.4684851729 1010770666.6667 
5321.1531700246 968693333.33333 
5374.3647017249    926361500 
5428.1083487421    902711000 
5482.3894322295 865629666.66667 
5537.2133265518    829580000 
5592.5854598173    802974500 
5648.5113144155 772162333.33333 
5704.9964275597 691396333.33333 
5762.0463918353 664783666.66667 
5819.6668557536 647784666.66667 
5877.8635243112 636002666.66667 
5936.6421595543 627808333.33333 
5996.0085811498 612321333.33333 
6055.9686669613    590631000 
6116.5283536309 568677333.33333 
6177.6936371672 548254333.33333 
6239.4705735389 529201666.66667 
6301.8652792743 509023666.66667 
6364.883932067 490506333.33333 
6428.5327713877    471964500 
6492.8180991016 449387666.66667 
6557.7462800926 427318333.33333 
6623.3237428935    421772000 
6689.5569803225    403825000 
6756.4525501257    389628000 
6824.0170756269    373120750 
6892.2572463832 360093666.66667 
6961.179818847    346315000 
7030.7916170355 333098666.66667 
7101.0995332059    319846250 
7172.1105285379 308382333.33333 
7243.8316338233    297677500 
7316.2699501615 286886666.66667 
7389.4326496631    276422750 
7463.3269761598    265217250 
7537.9602459214    253439000 
7613.3398483806 245674666.66667 
7689.4732468644    236932750 
7766.367979333    227913000 
7844.0316591264    218938000 
7922.4719757176    210617500 
8001.6966954748    202636500 
8081.7136624296    195026250 
8162.5307990539    182554500 
8244.1561070444    171947250 
8326.5976681148    165870000 
8409.863644796    159950200 
8493.9622812439    154660750 
8578.9019040564    150479500 
8664.6909230969    145698400 
8751.3378323279    142498000 
8838.8512106512    136627250 
8927.2397227577    132111400 
9016.5121199853    127522000 
9106.6772411851    123422200 
9197.744013597    116451000 
9289.721453733    113806800 
9382.6186682703    109811600 
9476.444854953    103512400 
9571.2093035025    101563250 
9666.9213965375     97865280 
9763.5906105029     93955500 
9861.226516608     90468880 
9959.838781774     86686300 
10059.437169592     82193350 
10160.031541288     80804400 
10261.631856701     77733800 
10364.248175268     74650000 
10467.89065702     72129900 
10572.56956359     68866300 
10678.295259226     65774050 
10785.078211819     63373150 
10892.928993937     59893600 
11001.858283876     59038900 
11111.876866715     57007350 
11222.995635382 54578733.333333 
11335.225591736     52267450 
11448.577847653     50506150 
11563.06362613     48069700 
11678.694262391     46408300 
11795.481205015     44881200 
11913.436017065     43061900 
12032.570377236     41339550 
12152.896081008     40030700 
12274.425041818 38457466.666667 
12397.169292236     36956450 
12521.140985159     35532000 
12646.35239501     34172750 
12772.81591896     32392500 
12900.54407815 31405566.666667 
13029.549518932     30239450 
13159.845014121     29129300 
13291.443464262     28066950 
13424.357898905 27054833.333333 
13558.601477894 25898166.666667 
13694.187492673 24802433.333333 
13831.129367599     23931000 
13969.440661275 23101766.666667 
14109.135067888 22150366.666667 
14250.226418567 21244033.333333 
14392.728682753     20391200 
14536.65596958 19582393.333333 
14682.022529276 18737333.333333 
14828.842754569     18075600 
14977.131182115     17375100 
15126.902493936 16708233.333333 
15278.171518875 16069833.333333 
15430.953234064 15461666.666667 
15585.262766404 14886033.333333 
15741.115394068     14336300 
15898.526548009 13761685.714286 
16057.511813489     13188600 
16218.086931624     12763250 
16380.26780094     12228400 
16544.07047895     11888350 
16709.511183739     11259400 
16876.606295577     10943800 
17045.372358532     10566950 
17215.826082118     10013240 
17387.984342939      9637055 
17561.864186368      9321330 
17737.482828232      9014010 
17914.857656514      8622885 
18094.006233079      8168010 
18274.94629541      7902275 
18457.695758364      7652140 
18642.272715948      7270820 
18828.695443107      7105395 
19016.982397539      6814010 
19207.152221514      6536840 
19399.223743729      6202540 
19593.215981166      6026220 
19789.148140978      5788810 
19987.039622388      5563265 
20186.910018612      5348400 
20388.779118798      5143460 
20592.666909986      4945180 
20798.593579086      4762710 
21006.579514877      4585525 
21216.645310025      4416780 
21428.811763126      4254985 
21643.099880757 4027823.3333333 
21859.530879564      3883140 
22078.12618836      3745650 
22298.907450244      3614150 
22521.896524746      3488430 
22747.115489993      3341340 
22974.586644893      3200300 
23204.332511342      3092345 
23436.375836456 2963716.6666667 
23670.73959482      2841325 
23907.446990769      2748090 
24146.521460676 2636913.3333333 
24387.986675283      2531180 
24631.866542036 2430713.3333333 
24878.185207456      2335100 
25126.967059531 2243956.6666667 
25378.236730126      2157780 
25632.019097427 2073983.3333333 
25888.339288402      1995860 
26147.222681286 1899246.6666667 
26408.694908098 1836453.3333333 
26672.781857179      1762770 
26939.509675751 1704976.6666667 
27208.904772509 1631423.3333333 
27480.993820234 1555326.6666667 
27755.803758436      1506620 
28033.361796021 1453936.6666667 
28313.695413981 1393626.6666667 
28596.832368121 1328616.6666667 
28882.800691802 1282086.6666667 
29171.62869872 1230496.6666667 
29463.344985707 1181463.3333333 
29757.978435564      1134840 
30055.55821992 1085193.3333333 
30356.113802119      1045550 
30659.67494014 1008085.3333333 
30966.271689541 969823.66666667 
31275.934406437       933342 
31588.693750501       898545 
31904.580688006     866433.8 
32223.626494886       828566 
32545.862759835       798458 
32871.321387434       763618 
33200.034601308     734013.5 
33532.034947321       708122 
33867.355296794     683499.5 
34206.028849762     652207.5 
34548.08913826       629849 
34893.570029642       608570 
35242.505729939       581485 
35594.930787238       555878 
35950.880095111       531658 
36310.388896062       514315 
36673.492785022       497756 
37040.227712872       474948 
37410.629990001     453879.5 
37784.736289901       437658 
38162.5836528     419668.5 
38544.209489328       402576 
38929.651584221       386176 
39318.948100064     370954.5 
39712.137581064       356086 
40109.258956875     339177.5 
40510.351546444     329062.5 
40915.455061908     316432.5 
41324.609612527       303643 
41737.855708653     292917.5 
42155.234265739       281989 
42576.786608396     271539.5 
43002.55447448     261597.5 
43432.580019225     251264.5 
43866.905819417       240675 
44305.574877612       230176 
44748.630626388       222102 
45196.116932652     214348.5 
45648.078101978 205131.66666667 
46104.558882998       194255 
46565.604471828     188406.5 
47031.260516546 181800.33333333 
47501.573121712     174261.5 
47976.588852929       168527 
48456.354741458 161690.33333333 
48940.918288873       155171 
49430.327471761 148999.66666667 
49924.630746479     143112.5 
50423.877053944 137529.66666667 
50928.115824483       131129 
51437.396982728 127113.66666667 
51951.770952555       122306 
52471.288662081 117711.66666667 
52996.001548702 112471.66666667 
53525.961564189       108318 
54061.221179831 104367.66666667 
54601.833391629 99853.033333333 
55147.851725545     96269.65 
55699.330242801      92857.7 
56256.323545229        88952 
56818.886780681      85220.4 
57387.075648488      81736.3 
57960.946404973 78407.933333333 
58540.555869022      74701.6 
59125.961427713 72123.466666667 
59717.22104199 69382.966666667 
60314.39325241 66662.766666667 
60917.537184934 64074.033333333 
61526.712556783 61609.466666667 
62141.979682351 59253.966666667 
62763.399479174 56888.233333333 
63391.033473966      54891.6 
64024.943808706 52435.814285714 
64665.193246793      50598.7 
65311.845179261      48764.4 
65964.963631053      46440.7 
66624.613267364        44783 
67290.859400038      43077.3 
67963.767994038     41206.45 
68643.405673978      39778.6 
69329.839730718      38417.5 
70023.138128025     36688.45 
70723.369509305     35054.45 
71430.603204399      33885.8 
72144.909236443     32770.65 
72866.358328807      31350.5 
73595.021912095     30003.35 
74330.972131216        28192 
75074.281852528      27510.4 
75825.024671053      26662.4 
76583.274917764     25834.15 
77349.107666942     24776.45 
78122.598743611      23772.9 
78903.824731047     22819.35 
79692.862978358      21913.1 
80489.791608141      21051.1 
81294.689524223     20223.35 
82107.636419465     19450.55 
82928.712783659      18707.1 
83757.999911496        17999 
84595.579910611 17161.566666667 
85441.535709717        16369 
86295.951066814     15749.55 
87158.910577482      15096.5 
88030.499683257      14648.5 
88910.80468009      14125.8 
89799.912726891 13505.466666667 
90697.91185416      12916.7 
91604.890972701      12469.4 
92520.939882428 11937.866666667 
93446.149281253      11401.1 
94380.610774065     11048.15 
95324.416881806        10591 
96277.661050624      10155.5 
97240.43766113 9743.4066666667 
98212.842037741     9350.765 
99194.970458119     9051.315 
100186.9201627      8833.98 
199060.83304441      540.628 
399467.9878358       32.719 
594753.39981818      6.34016 
793700.71765891      1.97889 
997811.18987739      0.80202 
1193529.3359837     0.383429 
1399507.0114645     0.205433 
