#  WAVELENGTH	        FLUX	
#  (ANGSTROM)	(ERG/CM2/S/A)	
############	############	
712.99790904139  5.20347E-25 
720.12788813181  1.37712E-24 
734.60245868325  3.22861E-24 
741.94848327009  8.10648E-24 
749.36796810279  1.98442E-23 
764.43026426165  4.74344E-23 
772.07456690427  1.10499E-22 
779.79531257331  2.52054E-22 
787.59326569905   5.5634E-22 
803.4238903396  1.21968E-21 
811.45812924299  2.61886E-21 
819.57271053542  5.49301E-21 
827.76843764078   1.1301E-20 
844.40658323736  2.28294E-20 
852.85064906973   4.5307E-20 
861.37915556043  8.83941E-20 
869.99294711603  1.69184E-19 
878.69287658719  3.20514E-19 
887.47980535306  5.96353E-19 
896.3546034066  1.09299E-18 
914.37133093507  2.80487E-15 
923.51504424442  1.09749E-14 
932.75019468686  1.80129E-14 
942.07769663373  3.39686E-14 
951.49847360007  5.92963E-14 
961.01345833607  1.07894E-13 
970.62359291943  1.75429E-13 
980.32982884862  2.99097E-13 
990.13312713711  5.00773E-13 
1000.0344584085   8.9033E-13 
1010.0348029926  1.38961E-12 
1020.1351510225  2.23326E-12 
1030.3365025327   3.9617E-12 
1040.639867558  6.40048E-12 
1051.0462662336  9.55546E-12 
1061.556728896   1.5592E-11 
1072.1722961849  2.42102E-11 
1082.8940191468  3.79411E-11 
1093.7229593382  5.39099E-11 
1104.6601889316 1.0002675E-10 
1115.7067908209  1.95219E-10 
1126.8638587291  3.00395E-10 
1138.1324973164  4.52902E-10 
1149.5138222896  6.63333E-10 
1161.0089605125  9.56827E-10 
1172.6190501176   1.39155E-9 
1184.3452406188   2.35456E-9 
1196.188693025   3.56876E-9 
1208.1505799552   2.98735E-9 
1220.2320857548    6.9661E-9 
1232.4344066123   1.03249E-8 
1244.7587506785   1.70843E-8 
1257.2063381852   2.70007E-8 
1269.7784015671   3.61616E-8 
1282.4761855828   5.45357E-8 
1295.3009474386   8.18397E-8 
1308.253956913   1.15754E-7 
1321.3364964821   1.53052E-7 
1334.5498614469  2.239445E-7 
1347.8953600614   3.53476E-7 
1361.374313662   3.97147E-7 
1374.9880567986     5.892E-7 
1388.7379373666   7.63188E-7 
1402.6253167403   1.27607E-6 
1416.6515699077    1.8256E-6 
1430.8180856068 2.5425564705882E-6 
1445.1262664628 3.3864092307692E-6 
1459.5775291275   4.82624E-6 
1474.1733044187  6.021735E-6 
1488.9150374629   1.06215E-5 
1503.8041878376 1.3333572727273E-5 
1518.8422297159   2.03995E-5 
1534.0306520131   2.98525E-5 
1549.3709585332   4.27828E-5 
1564.8646681186  6.693075E-5 
1580.5133147997 0.0001006073 
1596.3184479477   0.00011885 
1612.2816324272 0.0001473325 
1628.4044487515  0.000206656 
1644.688493239  0.000269167 
1661.1353781714 0.00039043227272727 
1677.7467319531  0.000596896 
1694.5241992726  0.000854131 
1711.4694412654  0.001203495 
1728.584135678   0.00187899 
1745.8699770348   0.00225939 
1763.3286768051   0.00287356 
1780.9619635732   0.00474993 
1798.7715832089  0.006989075 
1816.759299041   0.00908008 
1834.9268920314   0.01037356 
1853.2761609517  0.013404775 
1871.8089225613    0.0186329 
1890.5270117869    0.0266686 
1909.4322819047   0.03730335 
1928.5266047238   0.03961335 
1947.811870771 0.074593063636364 
1967.2899894787 0.10820100588235 
1986.9628893735 0.11766323809524 
2006.8325182673     0.141394 
2026.9008434499    0.1709205 
2047.1698518844    0.2084775 
2067.6415504033    0.2419279 
2088.3179659073     0.471485 
2109.2011455664      0.45425 
2130.293157022      0.64912 
2151.5960885923     0.729836 
2173.1120494782    0.7698745 
2194.843169973 1.3998966666667 
2216.7916016727     2.221195 
2238.9595176894      3.78658 
2261.3491128663       3.0534 
2283.962603995 4.2255966666667 
2306.8022300349     8.708875 
2329.8702523353    10.456995 
2353.1689548586 6.5039266666667 
2376.7006444072     16.51495 
2400.4676508513     25.53155 
2424.4723273598      46.3655 
2448.7170506334     60.78395 
2473.2042211397 35.436866666667 
2497.9362633511 42.370830434783 
2522.9156259846 159.03134814815 
2548.1447822445      239.464 
2573.6262300669 252.29666666667 
2599.3624923676 445.06566666667 
2625.3561172913      1326.55 
2651.6096784642 1721.4533333333 
2678.1257752488      1397.44 
2704.9070330013 1497.9276666667 
2731.9561033313      1447.34 
2759.2756643647 2822.3266666667 
2786.8684210083      1190.41 
2814.7371052184      2861.43 
2842.8844762706 977.44033333333 
2871.3133210333      6096.48 
2900.0264542436      12824.6 
2929.026718786     12597.95 
2958.3169859739      12145.6 
2987.9001558336     11366.15 
3017.779157392      16569.2 
3047.9569489659      24897.3 
3078.4365184556      39222.1 
3109.2208836401      58870.4 
3140.3130924765      90164.6 
3171.7162234013      78281.2 
3203.4333856353      78070.6 
3235.4677194916       112379 
3267.8223966866       165570 
3300.5006206534     146929.5 
3333.50562686       136110 
3366.8406831286    101886.85 
3400.5090899598     143451.5 
3434.5141808594       143780 
3468.859322668     176932.5 
3503.5479158947     186624.5 
3538.5833950537    147280.45 
3573.9692290042       113088 
3609.7089212942       237126 
3645.8060105072       355218 
3682.2640706123       324939 
3719.0867113184       148553 
3756.2775784316       266449 
3793.8403542159     157084.2 
3831.778757758     134050.5 
3870.0965453356       284239 
3908.797510789     222212.5 
3947.8854858969     184510.5 
3987.3643407558       610529 
4027.2379841634       628906 
4067.510364005     637159.5 
4108.1854676451     643254.5 
4149.2673223215 545657.33333333 
4190.7599955447     691910.5 
4232.6675955002     835251.5 
4274.9942714552       701342 
4317.7442141697      1035590 
4360.9216563114    1063226.5 
4404.5308728746      1102435 
4448.5761816033 1270546.6666667 
4493.0619434193      1481355 
4537.9925628535      1494495 
4583.3724884821      1594925 
4629.2062133669 1604733.3333333 
4675.4982755006      1618335 
4722.2532582556      1777155 
4769.4757908381 1879306.6666667 
4817.1705487465      1915890 
4865.342254234      1849690 
4913.9956767763      1952575 
4963.1356335441 1787933.3333333 
5012.7669898795      1788640 
5062.8946597783 1792306.6666667 
5113.5236063761      1651735 
5164.6588424398 1594726.6666667 
5216.3054308642      1968915 
5268.4684851729      2040080 
5321.1531700246      2105310 
5374.3647017249      2083765 
5428.1083487421      2197930 
5482.3894322295      2141930 
5537.2133265518 2244903.3333333 
5592.5854598173      2294235 
5648.5113144155      2297160 
5704.9964275597 2373083.3333333 
5762.0463918353 2380316.6666667 
5819.6668557536 2513876.6666667 
5877.8635243112 2289976.6666667 
5936.6421595543      2480200 
5996.0085811498 2486066.6666667 
6055.9686669613      2451910 
6116.5283536309 2262416.6666667 
6177.6936371672      2365200 
6239.4705735389 2295723.3333333 
6301.8652792743 2292996.6666667 
6364.883932067      2327660 
6428.5327713877      2350325 
6492.8180991016 2360883.3333333 
6557.7462800926 2375423.3333333 
6623.3237428935      2355960 
6689.5569803225    2376652.5 
6756.4525501257 2370423.3333333 
6824.0170756269    2370142.5 
6892.2572463832 2300126.6666667 
6961.179818847      2218490 
7030.7916170355 2229186.6666667 
7101.0995332059      2112945 
7172.1105285379      2132340 
7243.8316338233      2130385 
7316.2699501615 2139523.3333333 
7389.4326496631    2140277.5 
7463.3269761598      2163160 
7537.9602459214    2194127.5 
7613.3398483806 2177646.6666667 
7689.4732468644      2165075 
7766.367979333      2200765 
7844.0316591264      2050935 
7922.4719757176    1963117.5 
8001.6966954748      1986420 
8081.7136624296      1872265 
8162.5307990539      1895140 
8244.1561070444      1905205 
8326.5976681148      1840010 
8409.863644796      1868656 
8493.9622812439    1720997.5 
8578.9019040564      1872910 
8664.6909230969      1782636 
8751.3378323279    1857062.5 
8838.8512106512    1881222.5 
8927.2397227577      1828154 
9016.5121199853    1838232.5 
9106.6772411851      1683632 
9197.744013597      1602045 
9289.721453733      1647332 
9382.6186682703      1549206 
9476.444854953      1589272 
9571.2093035025    1583152.5 
9666.9213965375      1550042 
9763.5906105029      1562376 
9861.226516608      1590140 
9959.838781774 1589473.3333333 
10059.437169592      1572320 
10160.031541288      1554000 
10261.631856701      1549995 
10364.248175268      1528230 
10467.89065702      1517745 
10572.56956359 1485043.3333333 
10678.295259226      1452505 
10785.078211819      1399610 
10892.928993937      1289240 
11001.858283876      1239040 
11111.876866715      1268795 
11222.995635382 1261873.3333333 
11335.225591736      1236765 
11448.577847653      1268495 
11563.06362613      1239640 
11678.694262391      1246915 
11795.481205015      1217290 
11913.436017065 1205083.3333333 
12032.570377236      1187390 
12152.896081008      1196385 
12274.425041818 1175036.6666667 
12397.169292236      1157750 
12521.140985159 1146016.6666667 
12646.35239501      1124995 
12772.81591896      1105690 
12900.54407815 1089726.6666667 
13029.549518932      1081280 
13159.845014121 1060006.6666667 
13291.443464262      1053510 
13424.357898905      1049100 
13558.601477894 1018376.6666667 
13694.187492673 1016566.6666667 
13831.129367599      1003000 
13969.440661275       967560 
14109.135067888 895030.66666667 
14250.226418567 893857.33333333 
14392.728682753       880893 
14536.65596958 851971.33333333 
14682.022529276 835708.33333333 
14828.842754569 848725.33333333 
14977.131182115 821447.33333333 
15126.902493936 823884.66666667 
15278.171518875 825623.33333333 
15430.953234064       803323 
15585.262766404       799939 
15741.115394068 754760.33333333 
15898.526548009 761121.42857143 
16057.511813489       751706 
16218.086931624       751551 
16380.26780094       717241 
16544.07047895       719157 
16709.511183739     690417.5 
16876.606295577       691600 
17045.372358532     662962.5 
17215.826082118       630348 
17387.984342939     616060.5 
17561.864186368       603560 
17737.482828232     582850.5 
17914.857656514       562905 
18094.006233079     541990.5 
18274.94629541       518602 
18457.695758364       509060 
18642.272715948     486014.5 
18828.695443107       466991 
19016.982397539     462100.5 
19207.152221514     443511.5 
19399.223743729     426709.5 
19593.215981166     407227.5 
19789.148140978     394243.5 
19987.039622388       388083 
20186.910018612     368368.5 
20388.779118798     359638.5 
20592.666909986       344610 
20798.593579086       332560 
21006.579514877       325540 
21216.645310025       314688 
21428.811763126       304621 
21643.099880757 290001.66666667 
21859.530879564     279616.5 
22078.12618836     272563.5 
22298.907450244     262448.5 
22521.896524746     253967.5 
22747.115489993 235394.33333333 
22974.586644893     223407.5 
23204.332511342       199777 
23436.375836456 191911.33333333 
23670.73959482       178391 
23907.446990769     180286.5 
24146.521460676 168265.66666667 
24387.986675283     159642.5 
24631.866542036 158347.33333333 
24878.185207456     156926.5 
25126.967059531 149267.66666667 
25378.236730126       145601 
25632.019097427 142205.33333333 
25888.339288402       139543 
26147.222681286 135098.33333333 
26408.694908098       130065 
26672.781857179     130026.5 
26939.509675751       124980 
27208.904772509 121687.66666667 
27480.993820234 117890.33333333 
27755.803758436       115077 
28033.361796021 111578.33333333 
28313.695413981 108709.66666667 
28596.832368121 104973.33333333 
28882.800691802       101651 
29171.62869872 97544.766666667 
29463.344985707      94741.2 
29757.978435564 91291.066666667 
30055.55821992 88413.566666667 
30356.113802119 85161.366666667 
30659.67494014 82064.166666667 
30966.271689541 79498.666666667 
31275.934406437 76666.133333333 
31588.693750501      74006.5 
31904.580688006     71859.62 
32223.626494886      68551.6 
32545.862759835      66278.1 
32871.321387434      63879.2 
33200.034601308     61069.55 
33532.034947321      59218.6 
33867.355296794     56914.85 
34206.028849762     54757.85 
34548.08913826        53045 
34893.570029642     51428.95 
35242.505729939      49188.3 
35594.930787238     47029.35 
35950.880095111      45380.5 
36310.388896062      43629.7 
36673.492785022     42201.05 
37040.227712872     40234.55 
37410.629990001     38584.65 
37784.736289901      37359.1 
38162.5836528      36197.7 
38544.209489328     34639.55 
38929.651584221      33492.2 
39318.948100064      32001.8 
39712.137581064      30569.8 
40109.258956875      29691.6 
40510.351546444      28541.5 
40915.455061908      27602.7 
41324.609612527     26535.75 
41737.855708653     25527.95 
42155.234265739        24730 
42576.786608396     23228.65 
43002.55447448      21436.1 
43432.580019225     19901.15 
43866.905819417 18276.433333333 
44305.574877612      16711.9 
44748.630626388      16308.5 
45196.116932652     15292.45 
45648.078101978 14680.233333333 
46104.558882998     14086.85 
46565.604471828     13803.95 
47031.260516546 13349.166666667 
47501.573121712     12907.75 
47976.588852929      12588.4 
48456.354741458      12191.2 
48940.918288873     11736.45 
49430.327471761 11394.566666667 
49924.630746479      11016.8 
50423.877053944      10650.7 
50928.115824483     10280.65 
51437.396982728 10044.033333333 
51951.770952555     9661.625 
52471.288662081      9488.41 
52996.001548702 9064.5466666667 
53525.961564189      8833.59 
54061.221179831 8577.5033333333 
54601.833391629 8253.7866666667 
55147.851725545     8096.765 
55699.330242801 7878.8566666667 
56256.323545229 7591.0166666667 
56818.886780681 7330.3133333333 
57387.075648488 7112.6066666667 
57960.946404973 6872.2433333333 
58540.555869022      6614.04 
59125.961427713 6408.3933333333 
59717.22104199      6209.33 
60314.39325241 5969.6566666667 
60917.537184934 5772.0333333333 
61526.712556783 5614.7833333333 
62141.979682351 5397.4066666667 
62763.399479174 5223.1933333333 
63391.033473966      5057.42 
64024.943808706 4851.0228571429 
64665.193246793      4693.67 
65311.845179261      4544.33 
65964.963631053     4344.485 
66624.613267364      4204.71 
67290.859400038     4060.255 
67963.767994038      3888.04 
68643.405673978      3760.18 
69329.839730718      3640.05 
70023.138128025      3483.48 
70723.369509305       3338.5 
71430.603204399      3230.95 
72144.909236443      3129.97 
72866.358328807      2999.74 
73595.021912095       2873.9 
74330.972131216     2754.505 
75074.281852528       2629.9 
75825.024671053      2528.56 
76583.274917764     2427.075 
77349.107666942      2303.61 
78122.598743611     2195.025 
78903.824731047     2100.645 
79692.862978358     2017.095 
80489.791608141     1944.355 
81294.689524223     1882.725 
82107.636419465     1819.925 
82928.712783659      1754.04 
83757.999911496     1690.535 
84595.579910611      1615.94 
85441.535709717     1543.525 
86295.951066814     1485.945 
87158.910577482      1436.59 
88030.499683257     1384.305 
88910.80468009     1337.725 
89799.912726891 1283.6966666667 
90697.91185416       1229.5 
91604.890972701     1191.725 
92520.939882428 1145.1066666667 
93446.149281253     1099.345 
94380.610774065      1066.12 
95324.416881806      1026.08 
96277.661050624     987.0755 
97240.43766113      948.895 
98212.842037741      914.175 
99194.970458119     885.9665 
100186.9201627      866.514 
199060.83304441       55.792 
399467.9878358      3.50712 
594753.39981818     0.691855 
793700.71765891     0.217956 
997811.18987739    0.0887802 
1193529.3359837    0.0425627 
1399507.0114645    0.0228421 
