#  WAVELENGTH	        FLUX	
#  (ANGSTROM)	(ERG/CM2/S/A)	
############	############	
429.23803031605  1.72897E-24 
437.8657147254  1.12744E-23 
446.66681559138  5.69872E-23 
455.64481858477  2.29884E-22 
469.4513122327  1.01345E-21 
478.88728360858  4.18441E-21 
488.51291800911  1.62523E-20 
498.3320276611   5.9537E-20 
503.31534793771  1.67445E-19 
508.34850141708  3.92905E-19 
518.56630629557   1.0137E-18 
528.98948905211  3.19531E-18 
539.62217778206  9.45393E-18 
545.01839955988  2.72516E-17 
555.97326939103   7.4982E-17 
567.14833210579  1.98349E-16 
578.54801358112  5.00009E-16 
584.33349371693   1.2461E-15 
596.07859694064  2.97062E-15 
608.05977673914  6.88746E-15 
614.14037450653  1.54661E-14 
626.48459603412   3.3786E-14 
639.0769364144  7.18198E-14 
645.46770577855  1.49185E-13 
651.92238283633  2.62872E-13 
658.44160666469  4.24815E-13 
671.67628295866  8.32632E-13 
678.39304578824  1.59668E-12 
692.02874600859  3.00011E-12 
698.94903346867  5.47415E-12 
712.99790904139  1.05651E-11 
720.12788813181  1.87123E-11 
734.60245868325  3.08322E-11 
741.94848327009  5.28042E-11 
749.36796810279  8.91226E-11 
764.43026426165  1.48297E-10 
772.07456690427  2.43108E-10 
779.79531257331   3.9384E-10 
787.59326569905  6.19494E-10 
803.4238903396  9.79578E-10 
811.45812924299   1.53466E-9 
819.57271053542   2.35905E-9 
827.76843764078   3.58405E-9 
844.40658323736   5.38643E-9 
852.85064906973   8.00848E-9 
861.37915556043   1.17824E-8 
869.99294711603   1.70394E-8 
878.69287658719   2.47421E-8 
887.47980535306   3.53743E-8 
896.3546034066   4.96219E-8 
914.37133093507   3.30575E-5 
923.51504424442   9.59498E-5 
932.75019468686  0.000135416 
942.07769663373  0.000195768 
951.49847360007  0.000283759 
961.01345833607  0.000398103 
970.62359291943  0.000548794 
980.32982884862  0.000747308 
990.13312713711   0.00100501 
1000.0344584085    0.0014171 
1010.0348029926   0.00191114 
1020.1351510225   0.00249577 
1030.3365025327   0.00334101 
1040.639867558   0.00448822 
1051.0462662336   0.00590942 
1061.556728896    0.0076507 
1072.1722961849    0.0100107 
1082.8940191468    0.0129875 
1093.7229593382      0.01655 
1104.6601889316    0.1407741 
1115.7067908209     0.351063 
1126.8638587291     0.512768 
1138.1324973164     0.682385 
1149.5138222896     0.783918 
1161.0089605125      1.14172 
1172.6190501176      1.40353 
1184.3452406188    1.1204495 
1196.188693025     0.905175 
1208.1505799552     0.257852 
1220.2320857548      1.16813 
1232.4344066123      2.78764 
1244.7587506785     14.76354 
1257.2063381852      18.6006 
1269.7784015671      42.4626 
1282.4761855828      87.8725 
1295.3009474386        54.52 
1308.253956913      142.657 
1321.3364964821      191.755 
1334.5498614469     255.9235 
1347.8953600614      322.412 
1361.374313662      361.136 
1374.9880567986       433.87 
1388.7379373666       570.16 
1402.6253167403     667.6215 
1416.6515699077      815.528 
1430.8180856068 907.69411764706 
1445.1262664628 1292.7807692308 
1459.5775291275      1425.19 
1474.1733044187     1787.575 
1488.9150374629      2395.88 
1503.8041878376 2640.4790909091 
1518.8422297159      2484.46 
1534.0306520131      6043.62 
1549.3709585332      7128.53 
1564.8646681186      8004.04 
1580.5133147997      15591.7 
1596.3184479477      15633.6 
1612.2816324272      13089.7 
1628.4044487515      13809.8 
1644.688493239     13357.65 
1661.1353781714 14605.961818182 
1677.7467319531      42141.5 
1694.5241992726      60325.4 
1711.4694412654       157778 
1728.584135678     261285.5 
1745.8699770348       365522 
1763.3286768051     384243.5 
1780.9619635732     503784.5 
1798.7715832089     513601.5 
1816.759299041       446019 
1834.9268920314       422162 
1853.2761609517       691395 
1871.8089225613       717676 
1890.5270117869       852433 
1909.4322819047       689956 
1928.5266047238       654920 
1947.811870771 1261169.0909091 
1967.2899894787 1292488.2352941 
1986.9628893735 1291697.1428571 
2006.8325182673     905683.5 
2026.9008434499      1428300 
2047.1698518844    1003138.5 
2067.6415504033    1871621.5 
2088.3179659073      1903695 
2109.2011455664      1884850 
2130.293157022      1557345 
2151.5960885923      1717655 
2173.1120494782      1676340 
2194.843169973 1777246.6666667 
2216.7916016727      1603440 
2238.9595176894      1403180 
2261.3491128663    1210726.5 
2283.962603995      1665010 
2306.8022300349      1324235 
2329.8702523353       390585 
2353.1689548586       494974 
2376.7006444072     290393.5 
2400.4676508513     460152.5 
2424.4723273598 1677153.3333333 
2448.7170506334      1778810 
2473.2042211397 1531506.6666667 
2497.9362633511 1941880.4347826 
2522.9156259846 1264375.5555556 
2548.1447822445      1506035 
2573.6262300669 1098655.6666667 
2599.3624923676 682694.33333333 
2625.3561172913      2505885 
2651.6096784642      3095800 
2678.1257752488      2880535 
2704.9070330013      2466710 
2731.9561033313      1365344 
2759.2756643647      1525520 
2786.8684210083       458967 
2814.7371052184      2347680 
2842.8844762706      2992980 
2871.3133210333      3667100 
2900.0264542436      4863440 
2929.026718786      4278875 
2958.3169859739      5098150 
2987.9001558336      5444680 
3017.779157392      5738210 
3047.9569489659      5693945 
3078.4365184556      6283380 
3109.2208836401      5914880 
3140.3130924765      6254135 
3171.7162234013      5481710 
3203.4333856353      5784465 
3235.4677194916      6289140 
3267.8223966866      6796025 
3300.5006206534      7008850 
3333.50562686      6700060 
3366.8406831286      6666650 
3400.5090899598      7432005 
3434.5141808594      7545360 
3468.859322668      7286215 
3503.5479158947      7777455 
3538.5833950537      8055960 
3573.9692290042      7843530 
3609.7089212942      8015908 
3645.8060105072 8511776.6666667 
3682.2640706123     11010125 
3719.0867113184     22414400 
3756.2775784316     29685500 
3793.8403542159     32563250 
3831.778757758     36423100 
3870.0965453356     28986500 
3908.797510789     21007050 
3947.8854858969     17197300 
3987.3643407558     34376600 
4027.2379841634     35498750 
4067.510364005     35696400 
4108.1854676451     33580650 
4149.2673223215 36072333.333333 
4190.7599955447     34582850 
4232.6675955002     34270150 
4274.9942714552     33126750 
4317.7442141697     30491550 
4360.9216563114     34112500 
4404.5308728746     32340400 
4448.5761816033     32936600 
4493.0619434193     33206650 
4537.9925628535     32563150 
4583.3724884821     32162050 
4629.2062133669     32342400 
4675.4982755006     30745250 
4722.2532582556     31658850 
4769.4757908381     30903100 
4817.1705487465     29007600 
4865.342254234     26970000 
4913.9956767763     28419600 
4963.1356335441 27295266.666667 
5012.7669898795     26609550 
5062.8946597783 26900233.333333 
5113.5236063761     25267300 
5164.6588424398     24418900 
5216.3054308642     24462950 
5268.4684851729 23411033.333333 
5321.1531700246     23512900 
5374.3647017249     22978050 
5428.1083487421 22950933.333333 
5482.3894322295     22444100 
5537.2133265518 22073666.666667 
5592.5854598173     21944850 
5648.5113144155 21223266.666667 
5704.9964275597 21132833.333333 
5762.0463918353 20580033.333333 
5819.6668557536 20201966.666667 
5877.8635243112     19508800 
5936.6421595543 19154566.666667 
5996.0085811498     18541500 
6055.9686669613 18146533.333333 
6116.5283536309     17212600 
6177.6936371672 17270666.666667 
6239.4705735389 16691633.333333 
6301.8652792743 16296933.333333 
6364.883932067 15989833.333333 
6428.5327713877     15480650 
6492.8180991016 14884033.333333 
6557.7462800926 13513733.333333 
6623.3237428935 14630766.666667 
6689.5569803225     14243075 
6756.4525501257 13945233.333333 
6824.0170756269     13549550 
6892.2572463832 13224533.333333 
6961.179818847     12810175 
7030.7916170355     12563200 
7101.0995332059     12059525 
7172.1105285379 11774633.333333 
7243.8316338233     11480600 
7316.2699501615 11268833.333333 
7389.4326496631     10853200 
7463.3269761598     10582075 
7537.9602459214     10441100 
7613.3398483806     10122610 
7689.4732468644    9887177.5 
7766.367979333      9598335 
7844.0316591264      9280205 
7922.4719757176      9054975 
8001.6966954748      8870640 
8081.7136624296      8686530 
8162.5307990539    8328832.5 
8244.1561070444      8194100 
8326.5976681148    7915397.5 
8409.863644796      7922392 
8493.9622812439    7461137.5 
8578.9019040564      8411720 
8664.6909230969      7843512 
8751.3378323279      8495100 
8838.8512106512      7900020 
8927.2397227577      7865348 
9016.5121199853      7628825 
9106.6772411851      7622612 
9197.744013597      6896530 
9289.721453733      7255964 
9382.6186682703      6897536 
9476.444854953      6543606 
9571.2093035025    6521782.5 
9666.9213965375      6340100 
9763.5906105029      6207150 
9861.226516608      5973572 
9959.838781774 5794973.3333333 
10059.437169592      5466130 
10160.031541288      5490620 
10261.631856701      5346935 
10364.248175268      5184880 
10467.89065702      4938030 
10572.56956359 4792443.3333333 
10678.295259226      4618360 
10785.078211819      4496320 
10892.928993937      4203820 
11001.858283876      4305110 
11111.876866715      4162335 
11222.995635382 3965576.6666667 
11335.225591736      3836775 
11448.577847653      3795735 
11563.06362613      3599490 
11678.694262391      3497495 
11795.481205015      3375545 
11913.436017065 3315183.3333333 
12032.570377236      3196385 
12152.896081008      3123615 
12274.425041818      3021580 
12397.169292236      2934290 
12521.140985159      2821160 
12646.35239501      2756665 
12772.81591896 2602386.6666667 
12900.54407815 2566316.6666667 
13029.549518932      2492140 
13159.845014121 2408513.3333333 
13291.443464262      2343000 
13424.357898905 2266763.3333333 
13558.601477894 2179216.6666667 
13694.187492673      2092050 
13831.129367599      2044100 
13969.440661275 1986823.3333333 
14109.135067888 1914706.6666667 
14250.226418567      1850490 
14392.728682753 1760893.3333333 
14536.65596958      1723012 
14682.022529276      1657080 
14828.842754569 1605913.3333333 
14977.131182115 1543193.3333333 
15126.902493936 1509736.6666667 
15278.171518875      1459080 
15430.953234064 1432996.6666667 
15585.262766404 1397286.6666667 
15741.115394068 1351046.6666667 
15898.526548009 1345614.2857143 
16057.511813489      1262290 
16218.086931624      1264975 
16380.26780094      1179460 
16544.07047895      1189015 
16709.511183739      1115805 
16876.606295577      1106320 
17045.372358532      1067585 
17215.826082118     998744.5 
17387.984342939       975189 
17561.864186368       947563 
17737.482828232       921811 
17914.857656514       888621 
18094.006233079       837274 
18274.94629541       823107 
18457.695758364       795517 
18642.272715948       758790 
18828.695443107       741769 
19016.982397539     721748.5 
19207.152221514       693748 
19399.223743729       655811 
19593.215981166       643771 
19789.148140978     621760.5 
19987.039622388     600929.5 
20186.910018612       578189 
20388.779118798     559679.5 
20592.666909986       538598 
20798.593579086       520624 
21006.579514877       501815 
21216.645310025       484447 
21428.811763126       470343 
21643.099880757 444516.33333333 
21859.530879564       431998 
22078.12618836     417679.5 
22298.907450244       405222 
22521.896524746     390521.5 
22747.115489993 376172.33333333 
22974.586644893       362089 
23204.332511342     351118.5 
23436.375836456 337582.33333333 
23670.73959482       324497 
23907.446990769       314054 
24146.521460676       302527 
24387.986675283       291554 
24631.866542036 281670.33333333 
24878.185207456       270260 
25126.967059531 261988.33333333 
25378.236730126     254921.5 
25632.019097427 243211.33333333 
25888.339288402     238227.5 
26147.222681286       224230 
26408.694908098       220277 
26672.781857179       209337 
26939.509675751 206201.33333333 
27208.904772509       198049 
27480.993820234       187412 
27755.803758436     183928.5 
28033.361796021       177857 
28313.695413981 170888.33333333 
28596.832368121 162235.33333333 
28882.800691802 157857.66666667 
29171.62869872 152043.66666667 
29463.344985707 146467.33333333 
29757.978435564       140947 
30055.55821992       134493 
30356.113802119 130421.33333333 
30659.67494014       125893 
30966.271689541 121219.33333333 
31275.934406437       117076 
31588.693750501       113150 
31904.580688006       109350 
32223.626494886       104925 
32545.862759835       101263 
32871.321387434      96323.3 
33200.034601308      93044.5 
33532.034947321      89796.5 
33867.355296794      86869.5 
34206.028849762      83410.2 
34548.08913826      80753.3 
34893.570029642      78233.4 
35242.505729939     74886.65 
35594.930787238        71794 
35950.880095111      68857.2 
36310.388896062      66401.9 
36673.492785022     64502.75 
37040.227712872     61996.35 
37410.629990001      58970.5 
37784.736289901      57227.1 
38162.5836528     55243.05 
38544.209489328      53132.1 
38929.651584221      50827.4 
39318.948100064     49333.55 
39712.137581064     47219.55 
40109.258956875     44950.75 
40510.351546444     43978.05 
40915.455061908     42463.35 
41324.609612527     40507.25 
41737.855708653     39344.75 
42155.234265739      38050.4 
42576.786608396     36717.25 
43002.55447448     35412.55 
43432.580019225     33890.05 
43866.905819417      32688.4 
44305.574877612     31347.05 
44748.630626388     30275.15 
45196.116932652        29267 
45648.078101978      28050.1 
46104.558882998      26652.7 
46565.604471828      25784.1 
47031.260516546 24995.166666667 
47501.573121712     24000.95 
47976.588852929     23257.25 
48456.354741458      22345.3 
48940.918288873      21469.4 
49430.327471761 20662.433333333 
49924.630746479      19856.5 
50423.877053944 19128.666666667 
50928.115824483      18281.9 
51437.396982728 17738.533333333 
51951.770952555     17154.05 
52471.288662081 16473.033333333 
52996.001548702 15833.333333333 
53525.961564189     15157.65 
54061.221179831 14729.866666667 
54601.833391629 14110.033333333 
55147.851725545     13525.45 
55699.330242801 13148.333333333 
56256.323545229      12630.2 
56818.886780681 12056.066666667 
57387.075648488 11641.433333333 
57960.946404973 11183.533333333 
58540.555869022 10675.133333333 
59125.961427713      10252.9 
59717.22104199 9936.9666666667 
60314.39325241      9560.52 
60917.537184934 9199.1933333333 
61526.712556783 8863.9466666667 
62141.979682351 8530.8533333333 
62763.399479174 8167.8033333333 
63391.033473966      7928.93 
64024.943808706      7590.65 
64665.193246793      7324.89 
65311.845179261     7074.725 
65964.963631053     6746.575 
66624.613267364      6518.21 
67290.859400038      6257.81 
67963.767994038      6005.44 
68643.405673978      5806.29 
69329.839730718     5605.025 
70023.138128025      5370.66 
70723.369509305      5130.71 
71430.603204399      4973.71 
72144.909236443      4797.88 
72866.358328807      4613.64 
73595.021912095      4419.69 
74330.972131216     4160.745 
75074.281852528     4063.955 
75825.024671053      3943.11 
76583.274917764      3824.44 
77349.107666942      3657.63 
78122.598743611     3529.635 
78903.824731047       3392.2 
79692.862978358     3260.095 
80489.791608141     3135.755 
81294.689524223      3001.83 
82107.636419465     2904.065 
82928.712783659      2794.09 
83757.999911496     2689.425 
84595.579910611      2570.63 
85441.535709717     2454.055 
86295.951066814     2355.095 
87158.910577482      2271.45 
88030.499683257      2201.49 
88910.80468009      2127.32 
89799.912726891 2034.5733333333 
90697.91185416     1949.315 
91604.890972701     1884.205 
92520.939882428      1803.77 
93446.149281253     1721.485 
94380.610774065      1673.24 
95324.416881806      1604.94 
96277.661050624      1542.73 
97240.43766113      1480.86 
98212.842037741      1419.29 
99194.970458119      1378.44 
100186.9201627      1345.98 
199060.83304441      86.7752 
399467.9878358      5.40772 
594753.39981818      1.05914 
793700.71765891     0.332482 
997811.18987739     0.135254 
1193529.3359837    0.0648367 
1399507.0114645    0.0348149 
