#  WAVELENGTH	        FLUX	
#  (ANGSTROM)	(ERG/CM2/S/A)	
############	############	
446.66681559138  8.17969E-25 
455.64481858477  3.64125E-24 
469.4513122327  1.78354E-23 
478.88728360858  8.14239E-23 
488.51291800911  3.48347E-22 
498.3320276611  1.40007E-21 
503.31534793771  4.16625E-21 
508.34850141708  1.02613E-20 
518.56630629557  2.83439E-20 
528.98948905211  9.70338E-20 
539.62217778206  3.11589E-19 
545.01839955988  9.68366E-19 
555.97326939103  2.86488E-18 
567.14833210579  8.13652E-18 
578.54801358112  2.19856E-17 
584.33349371693  5.85594E-17 
596.07859694064  1.48924E-16 
608.05977673914   3.6703E-16 
614.14037450653  8.75289E-16 
626.48459603412  2.02669E-15 
639.0769364144  4.56335E-15 
645.46770577855   1.0001E-14 
651.92238283633  1.83882E-14 
658.44160666469  3.08531E-14 
671.67628295866  6.35818E-14 
678.39304578824  1.28155E-13 
692.02874600859  2.52295E-13 
698.94903346867  4.83107E-13 
712.99790904139  9.78172E-13 
720.12788813181  1.80976E-12 
734.60245868325  3.09892E-12 
741.94848327009  5.53681E-12 
749.36796810279  9.72979E-12 
764.43026426165  1.68627E-11 
772.07456690427  2.86851E-11 
779.79531257331   4.8215E-11 
787.59326569905  7.87765E-11 
803.4238903396  1.29141E-10 
811.45812924299  2.09122E-10 
819.57271053542  3.32479E-10 
827.76843764078  5.22217E-10 
844.40658323736  8.10363E-10 
852.85064906973   1.24373E-9 
861.37915556043   1.88631E-9 
869.99294711603   2.81987E-9 
878.69287658719   4.20402E-9 
887.47980535306   6.18598E-9 
896.3546034066   9.00493E-9 
914.37133093507   2.58142E-6 
923.51504424442   9.24317E-6 
932.75019468686   1.32231E-5 
942.07769663373   1.94827E-5 
951.49847360007   2.88604E-5 
961.01345833607   4.18672E-5 
970.62359291943   5.76216E-5 
980.32982884862   7.94834E-5 
990.13312713711  0.000108796 
1000.0344584085  0.000158014 
1010.0348029926   0.00021553 
1020.1351510225   0.00028343 
1030.3365025327  0.000399863 
1040.639867558  0.000537381 
1051.0462662336  0.000712727 
1061.556728896  0.000942071 
1072.1722961849   0.00125789 
1082.8940191468    0.0016604 
1093.7229593382   0.00213073 
1104.6601889316  0.008193695 
1115.7067908209    0.0158414 
1126.8638587291    0.0226771 
1138.1324973164    0.0295459 
1149.5138222896    0.0350122 
1161.0089605125    0.0476817 
1172.6190501176    0.0602577 
1184.3452406188   0.06903515 
1196.188693025    0.0884289 
1208.1505799552    0.0403164 
1220.2320857548     0.121902 
1232.4344066123     0.177405 
1244.7587506785     0.239388 
1257.2063381852      0.28651 
1269.7784015671     0.343538 
1282.4761855828    0.4300865 
1295.3009474386     0.506421 
1308.253956913     0.621491 
1321.3364964821     0.663195 
1334.5498614469    0.8226215 
1347.8953600614      1.04443 
1361.374313662      1.13735 
1374.9880567986      1.34679 
1388.7379373666      1.60956 
1402.6253167403     2.098805 
1416.6515699077      2.60476 
1430.8180856068 3.3552623529412 
1445.1262664628 3.9379007692308 
1459.5775291275      5.06005 
1474.1733044187     5.672405 
1488.9150374629      7.81247 
1503.8041878376      8.90136 
1518.8422297159      11.2297 
1534.0306520131      28.8669 
1549.3709585332      48.6006 
1564.8646681186      64.7559 
1580.5133147997      108.095 
1596.3184479477      127.126 
1612.2816324272      147.162 
1628.4044487515      179.485 
1644.688493239     211.8785 
1661.1353781714 302.22186363636 
1677.7467319531      602.388 
1694.5241992726    1074.3365 
1711.4694412654      1305.63 
1728.584135678       2014.6 
1745.8699770348      3066.79 
1763.3286768051      2943.92 
1780.9619635732     4317.265 
1798.7715832089         4969 
1816.759299041       5966.5 
1834.9268920314     5693.075 
1853.2761609517      7514.96 
1871.8089225613      9080.19 
1890.5270117869     11796.85 
1909.4322819047      13213.8 
1928.5266047238     13206.43 
1947.811870771 20468.809090909 
1967.2899894787 22738.052941176 
1986.9628893735      25061.8 
2006.8325182673     25783.95 
2026.9008434499      33364.5 
2047.1698518844     37246.05 
2067.6415504033     43119.66 
2088.3179659073      77876.5 
2109.2011455664       129868 
2130.293157022     153358.5 
2151.5960885923       159660 
2173.1120494782       182638 
2194.843169973       188098 
2216.7916016727     238766.5 
2238.9595176894       233238 
2261.3491128663     180823.5 
2283.962603995 256313.66666667 
2306.8022300349       244279 
2329.8702523353       181197 
2353.1689548586       219407 
2376.7006444072     163411.5 
2400.4676508513       191659 
2424.4723273598       332548 
2448.7170506334       383369 
2473.2042211397       232908 
2497.9362633511 249182.7826087 
2522.9156259846 186752.92592593 
2548.1447822445       413144 
2573.6262300669 616403.33333333 
2599.3624923676 537781.66666667 
2625.3561172913      1428130 
2651.6096784642 1775433.3333333 
2678.1257752488      1610230 
2704.9070330013 1216407.6666667 
2731.9561033313       863451 
2759.2756643647      1063620 
2786.8684210083     369627.5 
2814.7371052184 1478303.3333333 
2842.8844762706 818849.33333333 
2871.3133210333 2241616.6666667 
2900.0264542436      3682860 
2929.026718786      3157925 
2958.3169859739      3295410 
2987.9001558336      3160485 
3017.779157392      3611330 
3047.9569489659      3904975 
3078.4365184556      3831920 
3109.2208836401      4450120 
3140.3130924765      4368305 
3171.7162234013      3914990 
3203.4333856353      3848765 
3235.4677194916      4854240 
3267.8223966866      5742615 
3300.5006206534      5397825 
3333.50562686      5257610 
3366.8406831286      4378750 
3400.5090899598      4663800 
3434.5141808594      5036690 
3468.859322668      5514830 
3503.5479158947      5733635 
3538.5833950537      5313745 
3573.9692290042      4465890 
3609.7089212942      5395770 
3645.8060105072 6689593.3333333 
3682.2640706123      6515610 
3719.0867113184      4829220 
3756.2775784316      6294875 
3793.8403542159      4660470 
3831.778757758      4656290 
3870.0965453356      5912840 
3908.797510789      5497625 
3947.8854858969      5304845 
3987.3643407558      9210120 
4027.2379841634      9211750 
4067.510364005      9364590 
4108.1854676451      9671725 
4149.2673223215 9637546.6666667 
4190.7599955447      9371705 
4232.6675955002      9253710 
4274.9942714552      7511285 
4317.7442141697      9484070 
4360.9216563114     10088000 
4404.5308728746     10383950 
4448.5761816033     11076000 
4493.0619434193     12042600 
4537.9925628535     12139550 
4583.3724884821     11849800 
4629.2062133669 11889866.666667 
4675.4982755006     11481700 
4722.2532582556     12114850 
4769.4757908381 12187233.333333 
4817.1705487465     11734050 
4865.342254234 10854613.333333 
4913.9956767763     11462200 
4963.1356335441 10955266.666667 
5012.7669898795     11003200 
5062.8946597783 11237533.333333 
5113.5236063761     10599800 
5164.6588424398 9467296.6666667 
5216.3054308642     10840550 
5268.4684851729 10561563.333333 
5321.1531700246 10557606.666667 
5374.3647017249     10484000 
5428.1083487421 10835566.666667 
5482.3894322295     10598100 
5537.2133265518 10509066.666667 
5592.5854598173     10633550 
5648.5113144155 10438633.333333 
5704.9964275597     10622200 
5762.0463918353 10511133.333333 
5819.6668557536     10579200 
5877.8635243112 9991106.6666667 
5936.6421595543 10280066.666667 
5996.0085811498 10059396.666667 
6055.9686669613      9903210 
6116.5283536309      9219230 
6177.6936371672      9562320 
6239.4705735389 9347626.6666667 
6301.8652792743      9142030 
6364.883932067      9086330 
6428.5327713877      8893605 
6492.8180991016 8790863.3333333 
6557.7462800926 8355076.6666667 
6623.3237428935      8653830 
6689.5569803225      8542405 
6756.4525501257 8357833.3333333 
6824.0170756269    8223127.5 
6892.2572463832 8079106.6666667 
6961.179818847    7863527.5 
7030.7916170355 7769043.3333333 
7101.0995332059      7560640 
7172.1105285379      7336320 
7243.8316338233    7299947.5 
7316.2699501615      7234610 
7389.4326496631    6962307.5 
7463.3269761598      6978320 
7537.9602459214      6842215 
7613.3398483806      6702420 
7689.4732468644      6579050 
7766.367979333    6513042.5 
7844.0316591264    6376082.5 
7922.4719757176    6170787.5 
8001.6966954748    6086267.5 
8081.7136624296    5981992.5 
8162.5307990539      5764790 
8244.1561070444      5738755 
8326.5976681148      5580450 
8409.863644796      5466098 
8493.9622812439    5018487.5 
8578.9019040564    5237862.5 
8664.6909230969      4920974 
8751.3378323279    5014622.5 
8838.8512106512    4932147.5 
8927.2397227577      4807454 
9016.5121199853    4727562.5 
9106.6772411851      4666622 
9197.744013597      4400315 
9289.721453733      4483614 
9382.6186682703      4294252 
9476.444854953      4204758 
9571.2093035025    4162697.5 
9666.9213965375      4088692 
9763.5906105029      4017320 
9861.226516608      3934860 
9959.838781774      3858826 
10059.437169592      3741845 
10160.031541288      3675305 
10261.631856701      3630935 
10364.248175268      3545795 
10467.89065702      3456685 
10572.56956359      3337050 
10678.295259226      3238085 
10785.078211819      3112130 
10892.928993937      2997205 
11001.858283876      3022900 
11111.876866715      2968435 
11222.995635382      2880800 
11335.225591736      2799005 
11448.577847653      2800875 
11563.06362613      2693840 
11678.694262391      2648655 
11795.481205015      2560665 
11913.436017065      2516080 
12032.570377236      2450470 
12152.896081008      2458905 
12274.425041818 2389016.6666667 
12397.169292236      2335320 
12521.140985159      2277550 
12646.35239501      2221460 
12772.81591896 2110273.3333333 
12900.54407815      2108430 
13029.549518932      2059950 
13159.845014121      2009120 
13291.443464262      1971120 
13424.357898905      1938750 
13558.601477894 1867586.6666667 
13694.187492673      1826690 
13831.129367599      1796075 
13969.440661275 1748186.6666667 
14109.135067888 1686326.6666667 
14250.226418567      1640100 
14392.728682753      1580540 
14536.65596958 1559528.3333333 
14682.022529276 1500473.3333333 
14828.842754569 1466776.6666667 
14977.131182115      1411820 
15126.902493936      1410650 
15278.171518875 1376436.6666667 
15430.953234064 1334066.6666667 
15585.262766404 1301953.3333333 
15741.115394068 1220863.3333333 
15898.526548009 1215058.5714286 
16057.511813489      1181440 
16218.086931624      1159205 
16380.26780094      1115380 
16544.07047895      1104985 
16709.511183739      1036595 
16876.606295577      1039260 
17045.372358532       993588 
17215.826082118       926347 
17387.984342939     908828.5 
17561.864186368       889817 
17737.482828232     864745.5 
17914.857656514       831918 
18094.006233079       777215 
18274.94629541       759977 
18457.695758364       742616 
18642.272715948     691156.5 
18828.695443107       679247 
19016.982397539     669063.5 
19207.152221514     638313.5 
19399.223743729       601508 
19593.215981166     593476.5 
19789.148140978       576387 
19987.039622388     561587.5 
20186.910018612     533747.5 
20388.779118798     521782.5 
20592.666909986       500132 
20798.593579086       481239 
21006.579514877     468635.5 
21216.645310025       451726 
21428.811763126       437739 
21643.099880757 408248.66666667 
21859.530879564       400794 
22078.12618836       389633 
22298.907450244     376371.5 
22521.896524746       362533 
22747.115489993 347559.33333333 
22974.586644893       334883 
23204.332511342     321152.5 
23436.375836456 310030.33333333 
23670.73959482     293497.5 
23907.446990769       289051 
24146.521460676 275304.33333333 
24387.986675283       263736 
24631.866542036 254740.33333333 
24878.185207456     247069.5 
25126.967059531 238671.33333333 
25378.236730126       228098 
25632.019097427 220574.66666667 
25888.339288402       214165 
26147.222681286 202608.33333333 
26408.694908098 196311.66666667 
26672.781857179       192064 
26939.509675751 185660.33333333 
27208.904772509 178335.66666667 
27480.993820234 170252.33333333 
27755.803758436     165559.5 
28033.361796021 160390.33333333 
28313.695413981 153996.33333333 
28596.832368121 147207.66666667 
28882.800691802       142510 
29171.62869872 136570.66666667 
29463.344985707 131930.66666667 
29757.978435564 126700.66666667 
30055.55821992 121585.66666667 
30356.113802119 117244.66666667 
30659.67494014 113202.33333333 
30966.271689541       108909 
31275.934406437       105303 
31588.693750501 101496.66666667 
31904.580688006     98198.42 
32223.626494886     93989.85 
32545.862759835      90612.6 
32871.321387434     86783.35 
33200.034601308     83423.85 
33532.034947321      80551.5 
33867.355296794     77707.25 
34206.028849762        74760 
34548.08913826        72265 
34893.570029642      70009.3 
35242.505729939      66950.7 
35594.930787238      64065.8 
35950.880095111      61603.9 
36310.388896062      59134.4 
36673.492785022     57164.25 
37040.227712872      54639.6 
37410.629990001     52228.95 
37784.736289901      50644.1 
38162.5836528      48990.3 
38544.209489328     46864.75 
38929.651584221      45284.1 
39318.948100064      43328.1 
39712.137581064     41489.95 
40109.258956875     39938.05 
40510.351546444     38618.35 
40915.455061908      37369.4 
41324.609612527      35924.7 
41737.855708653     34507.75 
42155.234265739      33469.6 
42576.786608396      32052.9 
43002.55447448     30474.35 
43432.580019225     28907.55 
43866.905819417 27518.933333333 
44305.574877612     26191.15 
44748.630626388      25416.7 
45196.116932652      24295.7 
45648.078101978 23366.333333333 
46104.558882998     22357.75 
46565.604471828      21783.9 
47031.260516546 21016.033333333 
47501.573121712     20192.05 
47976.588852929     19587.15 
48456.354741458      18851.4 
48940.918288873     18153.45 
49430.327471761 17476.933333333 
49924.630746479     16833.25 
50423.877053944      16212.9 
50928.115824483     15590.15 
51437.396982728 15094.266666667 
51951.770952555     14507.05 
52471.288662081      14041.8 
52996.001548702 13446.533333333 
53525.961564189     12967.75 
54061.221179831      12528.9 
54601.833391629 12022.733333333 
55147.851725545      11637.2 
55699.330242801 11240.333333333 
56256.323545229 10815.833333333 
56818.886780681      10388.1 
57387.075648488 9994.9166666667 
57960.946404973 9614.0933333333 
58540.555869022 9220.6866666667 
59125.961427713 8887.6266666667 
59717.22104199      8566.29 
60314.39325241 8241.4533333333 
60917.537184934      7932.77 
61526.712556783 7659.8666666667 
62141.979682351 7358.5933333333 
62763.399479174 7104.8533333333 
63391.033473966      6857.88 
64024.943808706 6560.4057142857 
64665.193246793      6332.73 
65311.845179261      6125.51 
65964.963631053      5842.49 
66624.613267364      5638.11 
67290.859400038     5443.795 
67963.767994038     5203.545 
68643.405673978       5028.6 
69329.839730718     4861.435 
70023.138128025     4645.315 
70723.369509305     4449.265 
71430.603204399       4304.6 
72144.909236443      4165.06 
72866.358328807     3990.225 
73595.021912095      3823.46 
74330.972131216      3652.58 
75074.281852528      3515.77 
75825.024671053      3409.33 
76583.274917764       3304.6 
77349.107666942      3174.95 
78122.598743611     3049.775 
78903.824731047     2930.125 
79692.862978358     2815.215 
80489.791608141     2706.725 
81294.689524223      2601.77 
82107.636419465      2507.03 
82928.712783659     2411.975 
83757.999911496     2323.495 
84595.579910611 2218.7033333333 
85441.535709717     2118.475 
86295.951066814     2043.225 
87158.910577482      1969.99 
88030.499683257     1898.865 
88910.80468009      1833.35 
89799.912726891 1754.5566666667 
90697.91185416      1679.22 
91604.890972701     1624.215 
92520.939882428 1556.5066666667 
93446.149281253      1492.24 
94380.610774065      1442.99 
95324.416881806 1384.2066666667 
96277.661050624     1328.975 
97240.43766113 1274.7466666667 
98212.842037741      1225.91 
99194.970458119         1187 
100186.9201627      1159.45 
199060.83304441      74.5644 
399467.9878358      4.65497 
594753.39981818     0.912544 
793700.71765891     0.286545 
997811.18987739     0.116561 
1193529.3359837     0.055866 
1399507.0114645    0.0299903 
