#  WAVELENGTH	        FLUX	
#  (ANGSTROM)	(ERG/CM2/S/A)	
############	############	
844.40658323736  1.70684E-25 
852.85064906973  3.88405E-25 
861.37915556043  8.66067E-25 
869.99294711603    1.889E-24 
878.69287658719   4.0654E-24 
887.47980535306  8.56999E-24 
896.3546034066  1.77453E-23 
914.37133093507  2.04221E-18 
923.51504424442  8.58318E-18 
932.75019468686  1.29852E-17 
942.07769663373  2.95571E-17 
951.49847360007  5.64833E-17 
961.01345833607  1.18971E-16 
970.62359291943  1.65779E-16 
980.32982884862  3.52535E-16 
990.13312713711  6.10857E-16 
1000.0344584085  1.03535E-15 
1010.0348029926  1.79387E-15 
1020.1351510225  3.29799E-15 
1030.3365025327  6.31867E-15 
1040.639867558  1.06807E-14 
1051.0462662336  1.45266E-14 
1061.556728896  2.96136E-14 
1072.1722961849  4.82183E-14 
1082.8940191468  6.94017E-14 
1093.7229593382  9.37187E-14 
1104.6601889316 1.694335E-13 
1115.7067908209  4.23337E-13 
1126.8638587291  7.84212E-13 
1138.1324973164  1.19164E-12 
1149.5138222896  1.78034E-12 
1161.0089605125  2.57808E-12 
1172.6190501176   3.8753E-12 
1184.3452406188 4.520735E-12 
1196.188693025  2.08239E-12 
1208.1505799552  8.66271E-13 
1220.2320857548  3.61133E-12 
1232.4344066123  1.29376E-11 
1244.7587506785  3.46777E-11 
1257.2063381852  5.08232E-11 
1269.7784015671  8.50991E-11 
1282.4761855828 9.458165E-11 
1295.3009474386  1.19705E-10 
1308.253956913  1.88158E-10 
1321.3364964821  2.17482E-10 
1334.5498614469  3.07191E-10 
1347.8953600614  4.71583E-10 
1361.374313662   5.2556E-10 
1374.9880567986 7.009355E-10 
1388.7379373666  9.33973E-10 
1402.6253167403   1.64207E-9 
1416.6515699077   2.27787E-9 
1430.8180856068 3.8544488235294E-9 
1445.1262664628 4.8706723076923E-9 
1459.5775291275   7.82905E-9 
1474.1733044187  1.066022E-8 
1488.9150374629    1.8838E-8 
1503.8041878376 2.4578636363636E-8 
1518.8422297159   3.94011E-8 
1534.0306520131   5.15757E-8 
1549.3709585332   7.66821E-8 
1564.8646681186  1.143084E-7 
1580.5133147997  1.845515E-7 
1596.3184479477   2.35132E-7 
1612.2816324272  3.172955E-7 
1628.4044487515    4.6568E-7 
1644.688493239   6.43726E-7 
1661.1353781714 9.3974840909091E-7 
1677.7467319531   1.40171E-6 
1694.5241992726  2.076135E-6 
1711.4694412654   3.01254E-6 
1728.584135678  4.653075E-6 
1745.8699770348   5.91119E-6 
1763.3286768051   7.90752E-6 
1780.9619635732   1.25035E-5 
1798.7715832089  1.914705E-5 
1816.759299041   2.50812E-5 
1834.9268920314   3.23674E-5 
1853.2761609517  4.368245E-5 
1871.8089225613  6.131235E-5 
1890.5270117869  8.849675E-5 
1909.4322819047  0.000124988 
1928.5266047238 0.0001521185 
1947.811870771 0.00025089881818182 
1967.2899894787 0.00035310235294118 
1986.9628893735 0.00043617647619048 
2006.8325182673  0.000573599 
2026.9008434499  0.000745566 
2047.1698518844  0.000946974 
2067.6415504033 0.0012320306 
2088.3179659073  0.002479405 
2109.2011455664  0.003172645 
2130.293157022   0.00407205 
2151.5960885923  0.004847255 
2173.1120494782  0.005467495 
2194.843169973 0.0092782433333333 
2216.7916016727   0.01221273 
2238.9595176894   0.02077455 
2261.3491128663    0.0207033 
2283.962603995    0.0281425 
2306.8022300349   0.05627885 
2329.8702523353   0.06722125 
2353.1689548586    0.0531404 
2376.7006444072     0.109154 
2400.4676508513     0.171685 
2424.4723273598     0.286369 
2448.7170506334     0.396391 
2473.2042211397 0.32489433333333 
2497.9362633511 0.41110769565217 
2522.9156259846 1.3304487777778 
2548.1447822445     1.356669 
2573.6262300669 1.3998366666667 
2599.3624923676 2.5595933333333 
2625.3561172913      4.88527 
2651.6096784642      5.18223 
2678.1257752488     5.532025 
2704.9070330013      7.93027 
2731.9561033313 9.2798766666667 
2759.2756643647      17.3963 
2786.8684210083     18.97805 
2814.7371052184      22.2091 
2842.8844762706 13.417526666667 
2871.3133210333 45.376933333333 
2900.0264542436      67.3861 
2929.026718786     75.35795 
2958.3169859739      80.6001 
2987.9001558336     99.61545 
3017.779157392      127.321 
3047.9569489659     181.4805 
3078.4365184556      234.144 
3109.2208836401     328.4855 
3140.3130924765      564.082 
3171.7162234013      570.679 
3203.4333856353      727.554 
3235.4677194916        927.3 
3267.8223966866     1431.155 
3300.5006206534     1697.905 
3333.50562686      1971.45 
3366.8406831286       1887.8 
3400.5090899598     2556.025 
3434.5141808594       2417.5 
3468.859322668      3106.17 
3503.5479158947     4028.085 
3538.5833950537     4466.145 
3573.9692290042      2446.13 
3609.7089212942     5278.754 
3645.8060105072 9134.6766666667 
3682.2640706123      8904.63 
3719.0867113184      4576.15 
3756.2775784316      11098.9 
3793.8403542159       7915.7 
3831.778757758      8945.19 
3870.0965453356      10376.7 
3908.797510789     7451.315 
3947.8854858969     5802.695 
3987.3643407558        23175 
4027.2379841634     27553.75 
4067.510364005     34485.25 
4108.1854676451     33039.35 
4149.2673223215 35947.833333333 
4190.7599955447      21120.2 
4232.6675955002      34889.7 
4274.9942714552     38095.85 
4317.7442141697      60613.1 
4360.9216563114      59101.4 
4404.5308728746      52376.3 
4448.5761816033 57337.166666667 
4493.0619434193     63045.75 
4537.9925628535     71563.75 
4583.3724884821     62322.35 
4629.2062133669      61800.8 
4675.4982755006      69860.8 
4722.2532582556     82295.75 
4769.4757908381 51221.933333333 
4817.1705487465        62150 
4865.342254234 90061.633333333 
4913.9956767763       123694 
4963.1356335441      52095.5 
5012.7669898795     70204.95 
5062.8946597783 107082.83333333 
5113.5236063761     130699.5 
5164.6588424398 71133.966666667 
5216.3054308642       113600 
5268.4684851729       138691 
5321.1531700246 150440.33333333 
5374.3647017249     161223.5 
5428.1083487421     130755.1 
5482.3894322295 113928.13333333 
5537.2133265518 150185.66666667 
5592.5854598173     89747.05 
5648.5113144155     108738.9 
5704.9964275597 146983.66666667 
5762.0463918353 157702.66666667 
5819.6668557536 148444.66666667 
5877.8635243112      86714.9 
5936.6421595543 104465.76666667 
5996.0085811498 146271.66666667 
6055.9686669613 201961.66666667 
6116.5283536309       178315 
6177.6936371672 93034.266666667 
6239.4705735389 106518.86666667 
6301.8652792743 156084.33333333 
6364.883932067       182465 
6428.5327713877       191171 
6492.8180991016 223375.33333333 
6557.7462800926 218154.33333333 
6623.3237428935 175316.66666667 
6689.5569803225    120087.25 
6756.4525501257 131280.33333333 
6824.0170756269    168652.75 
6892.2572463832 237598.66666667 
6961.179818847       339581 
7030.7916170355 230961.33333333 
7101.0995332059       130610 
7172.1105285379 167991.33333333 
7243.8316338233       280777 
7316.2699501615 419453.66666667 
7389.4326496631    524513.25 
7463.3269761598     583852.5 
7537.9602459214     547893.5 
7613.3398483806 381944.66666667 
7689.4732468644     312144.5 
7766.367979333    331051.75 
7844.0316591264     382908.5 
7922.4719757176    446941.75 
8001.6966954748    518664.25 
8081.7136624296     562210.5 
8162.5307990539     546429.5 
8244.1561070444       504430 
8326.5976681148    473113.75 
8409.863644796     435551.6 
8493.9622812439       406877 
8578.9019040564     511480.5 
8664.6909230969     547567.2 
8751.3378323279     612384.5 
8838.8512106512     484967.5 
8927.2397227577     472760.6 
9016.5121199853    545287.25 
9106.6772411851     577705.4 
9197.744013597    563878.75 
9289.721453733       565433 
9382.6186682703     562161.4 
9476.444854953     589812.8 
9571.2093035025    602165.75 
9666.9213965375     582128.6 
9763.5906105029     565502.8 
9861.226516608       578847 
9959.838781774 589343.73333333 
10059.437169592     594536.5 
10160.031541288     605682.5 
10261.631856701     615303.5 
10364.248175268       616012 
10467.89065702       623063 
10572.56956359       615420 
10678.295259226       608952 
10785.078211819       592213 
10892.928993937     568303.5 
11001.858283876       546580 
11111.876866715     556961.5 
11222.995635382 560061.33333333 
11335.225591736       557014 
11448.577847653       574387 
11563.06362613 566558.66666667 
11678.694262391       572353 
11795.481205015       563494 
11913.436017065 561408.33333333 
12032.570377236     562446.5 
12152.896081008     566475.5 
12274.425041818 558357.33333333 
12397.169292236       551350 
12521.140985159       548997 
12646.35239501       543611 
12772.81591896       538832 
12900.54407815       535883 
13029.549518932       534293 
13159.845014121 531172.33333333 
13291.443464262       532923 
13424.357898905 535618.33333333 
13558.601477894 527917.66666667 
13694.187492673 535499.33333333 
13831.129367599     512522.5 
13969.440661275       506818 
14109.135067888 484600.33333333 
14250.226418567       487104 
14392.728682753 488030.33333333 
14536.65596958 466678.36666667 
14682.022529276 472116.33333333 
14828.842754569 489910.66666667 
14977.131182115       476810 
15126.902493936 486222.66666667 
15278.171518875 491777.66666667 
15430.953234064 483603.33333333 
15585.262766404 486246.33333333 
15741.115394068 453675.33333333 
15898.526548009 464372.28571429 
16057.511813489       473630 
16218.086931624       467075 
16380.26780094       439975 
16544.07047895     453407.5 
16709.511183739     443757.5 
16876.606295577       449266 
17045.372358532     431735.5 
17215.826082118       417377 
17387.984342939       411802 
17561.864186368       406803 
17737.482828232       394176 
17914.857656514       382555 
18094.006233079       373185 
18274.94629541     358007.5 
18457.695758364       350976 
18642.272715948     342040.5 
18828.695443107       327111 
19016.982397539     324553.5 
19207.152221514       314436 
19399.223743729     302749.5 
19593.215981166       284294 
19789.148140978       275725 
19987.039622388     273763.5 
20186.910018612     260541.5 
20388.779118798       253891 
20592.666909986       244163 
20798.593579086     235695.5 
21006.579514877     231751.5 
21216.645310025     224641.5 
21428.811763126     217157.5 
21643.099880757 208828.66666667 
21859.530879564     200622.5 
22078.12618836       196933 
22298.907450244       189275 
22521.896524746       183832 
22747.115489993 168966.66666667 
22974.586644893       157904 
23204.332511342       136406 
23436.375836456 124088.66666667 
23670.73959482       111986 
23907.446990769     115612.5 
24146.521460676 106233.33333333 
24387.986675283     100550.3 
24631.866542036 99817.066666667 
24878.185207456        99067 
25126.967059531 92643.366666667 
25378.236730126      93430.3 
25632.019097427 91401.533333333 
25888.339288402     90316.95 
26147.222681286 89168.266666667 
26408.694908098 85579.633333333 
26672.781857179      87279.9 
26939.509675751 83527.266666667 
27208.904772509 81961.366666667 
27480.993820234 79703.733333333 
27755.803758436     76628.75 
28033.361796021 73399.566666667 
28313.695413981 73613.766666667 
28596.832368121      71794.6 
28882.800691802 70115.733333333 
29171.62869872 66369.466666667 
29463.344985707 65383.066666667 
29757.978435564      63716.7 
30055.55821992 62888.666666667 
30356.113802119      60777.1 
30659.67494014      58666.6 
30966.271689541 57451.133333333 
31275.934406437 55276.433333333 
31588.693750501 54110.533333333 
31904.580688006     52910.34 
32223.626494886     50534.55 
32545.862759835      49215.4 
32871.321387434     47535.25 
33200.034601308      45501.6 
33532.034947321      44579.7 
33867.355296794      42629.1 
34206.028849762     41192.25 
34548.08913826        40195 
34893.570029642     38809.65 
35242.505729939     37248.15 
35594.930787238      35464.4 
35950.880095111     34447.95 
36310.388896062      33240.4 
36673.492785022      32292.4 
37040.227712872      30712.7 
37410.629990001      29627.4 
37784.736289901     28707.85 
38162.5836528     27635.85 
38544.209489328      26577.6 
38929.651584221      25601.2 
39318.948100064     24677.15 
39712.137581064      22542.3 
40109.258956875     20661.95 
40510.351546444        19162 
40915.455061908      18179.2 
41324.609612527      17281.3 
41737.855708653      16707.5 
42155.234265739     15971.45 
42576.786608396        15263 
43002.55447448     14117.75 
43432.580019225      12931.9 
43866.905819417      11924.1 
44305.574877612      11064.9 
44748.630626388     10740.85 
45196.116932652     10270.45 
45648.078101978 9857.2966666667 
46104.558882998     9563.015 
46565.604471828     9452.005 
47031.260516546 9193.9566666667 
47501.573121712       8944.8 
47976.588852929     8750.775 
48456.354741458      8521.52 
48940.918288873     8277.855 
49430.327471761 8050.5866666667 
49924.630746479      7808.68 
50423.877053944 7608.1633333333 
50928.115824483     7360.415 
51437.396982728 7215.1333333333 
51951.770952555      7007.26 
52471.288662081 6905.4366666667 
52996.001548702 6596.1033333333 
53525.961564189      6459.79 
54061.221179831 6296.4366666667 
54601.833391629 6068.2866666667 
55147.851725545      6008.44 
55699.330242801      5864.09 
56256.323545229 5655.9566666667 
56818.886780681 5469.7533333333 
57387.075648488 5341.8933333333 
57960.946404973      5186.66 
58540.555869022 4993.9966666667 
59125.961427713      4865.08 
59717.22104199 4733.7233333333 
60314.39325241 4548.1233333333 
60917.537184934      4420.29 
61526.712556783 4323.8766666667 
62141.979682351 4158.9733333333 
62763.399479174 4037.3866666667 
63391.033473966      3915.15 
64024.943808706      3746.72 
64665.193246793      3617.06 
65311.845179261     3489.745 
65964.963631053      3331.94 
66624.613267364      3232.72 
67290.859400038      3125.05 
67963.767994038     2996.455 
68643.405673978      2904.41 
69329.839730718     2820.035 
70023.138128025      2699.18 
70723.369509305     2593.335 
71430.603204399      2518.24 
72144.909236443      2435.07 
72866.358328807      2339.76 
73595.021912095     2242.775 
74330.972131216      2155.42 
75074.281852528     1986.675 
75825.024671053       1818.3 
76583.274917764      1715.19 
77349.107666942      1584.08 
78122.598743611      1486.37 
78903.824731047      1411.67 
79692.862978358      1349.08 
80489.791608141     1291.505 
81294.689524223      1250.23 
82107.636419465     1212.155 
82928.712783659       1166.5 
83757.999911496     1130.525 
84595.579910611 1089.7766666667 
85441.535709717      1051.51 
86295.951066814      1016.14 
87158.910577482     991.9945 
88030.499683257     953.2865 
88910.80468009      935.556 
89799.912726891       904.19 
90697.91185416      870.804 
91604.890972701       842.67 
92520.939882428 822.36366666667 
93446.149281253     783.5495 
94380.610774065      765.127 
95324.416881806      740.917 
96277.661050624     715.1895 
97240.43766113 691.26266666667 
98212.842037741     669.5505 
99194.970458119      649.397 
100186.9201627      637.886 
199060.83304441      43.7082 
399467.9878358      2.82548 
594753.39981818     0.561391 
793700.71765891     0.177617 
997811.18987739    0.0726259 
1193529.3359837     0.034939 
1399507.0114645    0.0188104 
