#  WAVELENGTH	        FLUX	
#  (ANGSTROM)	(ERG/CM2/S/A)	
############	############	
578.54801358112  5.80605E-25 
584.33349371693  2.03755E-24 
596.07859694064  6.77015E-24 
608.05977673914  2.15853E-23 
614.14037450653  6.60925E-23 
626.48459603412  1.94915E-22 
639.0769364144  5.54868E-22 
645.46770577855  1.52627E-21 
651.92238283633  3.34916E-21 
658.44160666469  6.54198E-21 
671.67628295866  1.66344E-20 
678.39304578824  4.11186E-20 
692.02874600859  9.87324E-20 
698.94903346867  2.29711E-19 
712.99790904139  5.70538E-19 
720.12788813181  1.26598E-18 
734.60245868325  2.54327E-18 
741.94848327009  5.40145E-18 
749.36796810279  1.12353E-17 
764.43026426165  2.29189E-17 
772.07456690427  4.57426E-17 
779.79531257331  8.97648E-17 
787.59326569905  1.70982E-16 
803.4238903396   3.2493E-16 
811.45812924299  6.06876E-16 
819.57271053542  1.11083E-15 
827.76843764078  2.00078E-15 
844.40658323736  3.54969E-15 
852.85064906973   6.2063E-15 
861.37915556043  1.06973E-14 
869.99294711603  1.81372E-14 
878.69287658719  3.05309E-14 
887.47980535306  5.06053E-14 
896.3546034066  8.28183E-14 
914.37133093507  9.27174E-11 
923.51504424442  3.62404E-10 
932.75019468686  5.17676E-10 
942.07769663373  8.72531E-10 
951.49847360007   1.37102E-9 
961.01345833607   2.24098E-9 
970.62359291943   3.20265E-9 
980.32982884862   4.89402E-9 
990.13312713711   7.29506E-9 
1000.0344584085   1.15325E-8 
1010.0348029926   1.73127E-8 
1020.1351510225   2.40039E-8 
1030.3365025327   3.81504E-8 
1040.639867558   5.64083E-8 
1051.0462662336   7.58655E-8 
1061.556728896   1.13584E-7 
1072.1722961849   1.64531E-7 
1082.8940191468   2.31112E-7 
1093.7229593382    3.0905E-7 
1104.6601889316   4.98753E-7 
1115.7067908209   8.55008E-7 
1126.8638587291   1.21202E-6 
1138.1324973164   1.67919E-6 
1149.5138222896   2.28273E-6 
1161.0089605125   3.07218E-6 
1172.6190501176   4.18225E-6 
1184.3452406188    6.2759E-6 
1196.188693025   8.83692E-6 
1208.1505799552   7.99079E-6 
1220.2320857548   1.50878E-5 
1232.4344066123    2.0791E-5 
1244.7587506785  3.075695E-5 
1257.2063381852   4.43633E-5 
1269.7784015671   5.70022E-5 
1282.4761855828   7.89526E-5 
1295.3009474386  0.000109062 
1308.253956913  0.000143213 
1321.3364964821  0.000177627 
1334.5498614469  0.000247067 
1347.8953600614  0.000354852 
1361.374313662  0.000438009 
1374.9880567986 0.0005619505 
1388.7379373666  0.000746327 
1402.6253167403 0.0010821155 
1416.6515699077   0.00138687 
1430.8180856068 0.0019094864705882 
1445.1262664628 0.0023726807692308 
1459.5775291275   0.00323188 
1474.1733044187  0.004035525 
1488.9150374629   0.00564045 
1503.8041878376 0.0069740409090909 
1518.8422297159    0.0095918 
1534.0306520131    0.0254933 
1549.3709585332    0.0458895 
1564.8646681186   0.08415135 
1580.5133147997    0.1474195 
1596.3184479477     0.158339 
1612.2816324272     0.175345 
1628.4044487515     0.264563 
1644.688493239    0.3293685 
1661.1353781714     0.520038 
1677.7467319531      1.20565 
1694.5241992726     2.049975 
1711.4694412654      2.86198 
1728.584135678     4.896125 
1745.8699770348      6.30455 
1763.3286768051      6.70384 
1780.9619635732     10.87605 
1798.7715832089     13.67095 
1816.759299041      18.2188 
1834.9268920314     17.74705 
1853.2761609517     22.49625 
1871.8089225613      29.5503 
1890.5270117869     41.12375 
1909.4322819047     50.63135 
1928.5266047238     46.14085 
1947.811870771 87.536645454545 
1967.2899894787 106.40863529412 
1986.9628893735 114.41628571429 
2006.8325182673     122.1305 
2026.9008434499     160.4065 
2047.1698518844      186.607 
2067.6415504033      215.245 
2088.3179659073      475.039 
2109.2011455664     585.4395 
2130.293157022      678.375 
2151.5960885923     673.5915 
2173.1120494782     701.4375 
2194.843169973      930.253 
2216.7916016727     1178.039 
2238.9595176894     1554.415 
2261.3491128663     1316.815 
2283.962603995 1729.1033333333 
2306.8022300349      2349.81 
2329.8702523353     2579.885 
2353.1689548586 2344.9066666667 
2376.7006444072     3011.905 
2400.4676508513      3698.51 
2424.4723273598 5263.4266666667 
2448.7170506334      6146.15 
2473.2042211397 3919.8333333333 
2497.9362633511 4800.1117391304 
2522.9156259846 6985.4922222222 
2548.1447822445      13650.6 
2573.6262300669      16680.8 
2599.3624923676      21490.9 
2625.3561172913     49474.45 
2651.6096784642 69267.566666667 
2678.1257752488     57879.15 
2704.9070330013        47855 
2731.9561033313 40924.666666667 
2759.2756643647 59987.166666667 
2786.8684210083     26181.45 
2814.7371052184        63856 
2842.8844762706      28060.1 
2871.3133210333 110502.06666667 
2900.0264542436       237238 
2929.026718786     222337.5 
2958.3169859739       211708 
2987.9001558336     187499.5 
3017.779157392       256972 
3047.9569489659     324410.5 
3078.4365184556       368649 
3109.2208836401       506576 
3140.3130924765       612473 
3171.7162234013       525662 
3203.4333856353     501255.5 
3235.4677194916       735736 
3267.8223966866       965228 
3300.5006206534       830650 
3333.50562686       775248 
3366.8406831286       558899 
3400.5090899598       675488 
3434.5141808594       714972 
3468.859322668       852331 
3503.5479158947       933347 
3538.5833950537     730598.5 
3573.9692290042       614928 
3609.7089212942     996645.2 
3645.8060105072      1407310 
3682.2640706123      1265050 
3719.0867113184       674091 
3756.2775784316      1083430 
3793.8403542159     659237.5 
3831.778757758       561885 
3870.0965453356      1072530 
3908.797510789      1023554 
3947.8854858969      1002069 
3987.3643407558      2185575 
4027.2379841634      2070415 
4067.510364005      2146480 
4108.1854676451      2184325 
4149.2673223215 1897253.3333333 
4190.7599955447      2145870 
4232.6675955002      2309430 
4274.9942714552      1878575 
4317.7442141697      2719755 
4360.9216563114      2778470 
4404.5308728746      2884500 
4448.5761816033      3262290 
4493.0619434193      3735440 
4537.9925628535      3783940 
4583.3724884821      3833475 
4629.2062133669 3847763.3333333 
4675.4982755006      3815935 
4722.2532582556      4032510 
4769.4757908381      4147850 
4817.1705487465      4166575 
4865.342254234 3904793.3333333 
4913.9956767763      4057315 
4963.1356335441 3757726.6666667 
5012.7669898795      3721025 
5062.8946597783 3735503.3333333 
5113.5236063761      3454450 
5164.6588424398      3064320 
5216.3054308642      3974965 
5268.4684851729 4019746.6666667 
5321.1531700246 4083733.3333333 
5374.3647017249      4046405 
5428.1083487421 4234066.6666667 
5482.3894322295 4171383.3333333 
5537.2133265518      4232660 
5592.5854598173      4333695 
5648.5113144155      4288300 
5704.9964275597      4404530 
5762.0463918353 4387923.3333333 
5819.6668557536      4535030 
5877.8635243112      4147780 
5936.6421595543      4452600 
5996.0085811498 4420986.6666667 
6055.9686669613 4336986.6666667 
6116.5283536309      3997010 
6177.6936371672 4211516.6666667 
6239.4705735389 4110276.6666667 
6301.8652792743 4037743.3333333 
6364.883932067      4074020 
6428.5327713877    4031307.5 
6492.8180991016 4073223.3333333 
6557.7462800926 4005783.3333333 
6623.3237428935      4002760 
6689.5569803225      3993915 
6756.4525501257 3938403.3333333 
6824.0170756269      3907120 
6892.2572463832 3836023.3333333 
6961.179818847      3728385 
7030.7916170355      3711270 
7101.0995332059      3594405 
7172.1105285379 3528996.6666667 
7243.8316338233    3533047.5 
7316.2699501615      3511540 
7389.4326496631    3439952.5 
7463.3269761598    3469167.5 
7537.9602459214    3442082.5 
7613.3398483806      3398660 
7689.4732468644      3361750 
7766.367979333    3374522.5 
7844.0316591264    3255087.5 
7922.4719757176      3126335 
8001.6966954748      3120375 
8081.7136624296    3021967.5 
8162.5307990539      2965105 
8244.1561070444      2977095 
8326.5976681148    2875232.5 
8409.863644796      2875640 
8493.9622812439    2679712.5 
8578.9019040564      2825325 
8664.6909230969      2673604 
8751.3378323279    2734417.5 
8838.8512106512    2746982.5 
8927.2397227577      2664324 
9016.5121199853      2659525 
9106.6772411851      2530386 
9197.744013597    2413237.5 
9289.721453733      2443796 
9382.6186682703      2336456 
9476.444854953      2347588 
9571.2093035025    2323312.5 
9666.9213965375      2282232 
9763.5906105029      2267248 
9861.226516608      2269150 
9959.838781774 2252110.6666667 
10059.437169592      2211810 
10160.031541288      2167870 
10261.631856701      2150705 
10364.248175268      2112310 
10467.89065702      2083205 
10572.56956359 2026873.3333333 
10678.295259226      1975570 
10785.078211819      1900615 
10892.928993937      1815215 
11001.858283876      1762185 
11111.876866715      1768235 
11222.995635382      1743780 
11335.225591736      1702265 
11448.577847653      1725195 
11563.06362613      1676780 
11678.694262391      1670680 
11795.481205015      1619295 
11913.436017065 1600496.6666667 
12032.570377236      1571940 
12152.896081008      1583425 
12274.425041818 1548586.6666667 
12397.169292236      1520080 
12521.140985159      1497010 
12646.35239501      1465310 
12772.81591896 1429466.6666667 
12900.54407815 1407616.6666667 
13029.549518932      1385395 
13159.845014121      1357080 
13291.443464262      1342100 
13424.357898905      1330890 
13558.601477894 1288283.3333333 
13694.187492673 1277456.6666667 
13831.129367599      1258495 
13969.440661275 1225513.3333333 
14109.135067888 1163243.3333333 
14250.226418567      1141250 
14392.728682753 1118563.3333333 
14536.65596958 1097245.3333333 
14682.022529276      1065410 
14828.842754569      1059140 
14977.131182115      1020780 
15126.902493936 1031673.3333333 
15278.171518875 1022076.6666667 
15430.953234064 994722.66666667 
15585.262766404       980644 
15741.115394068 922243.66666667 
15898.526548009 928261.57142857 
16057.511813489       909795 
16218.086931624       901587 
16380.26780094       870552 
16544.07047895       863125 
16709.511183739       818772 
16876.606295577       818688 
17045.372358532     780941.5 
17215.826082118       738305 
17387.984342939       721227 
17561.864186368       705855 
17737.482828232     682915.5 
17914.857656514       658404 
18094.006233079       627302 
18274.94629541       600808 
18457.695758364       589836 
18642.272715948       558695 
18828.695443107       539475 
19016.982397539       532027 
19207.152221514       508562 
19399.223743729     487360.5 
19593.215981166     470762.5 
19789.148140978     456775.5 
19987.039622388       448428 
20186.910018612       425275 
20388.779118798     415722.5 
20592.666909986       398872 
20798.593579086     383239.5 
21006.579514877       374895 
21216.645310025     361849.5 
21428.811763126     351265.5 
21643.099880757       331989 
21859.530879564     320944.5 
22078.12618836     312713.5 
22298.907450244     301334.5 
22521.896524746     291250.5 
22747.115489993 274036.66666667 
22974.586644893       262586 
23204.332511342       242438 
23436.375836456       235351 
23670.73959482       220934 
23907.446990769       221233 
24146.521460676 207914.33333333 
24387.986675283     197301.5 
24631.866542036       193941 
24878.185207456     190458.5 
25126.967059531       182484 
25378.236730126     175936.5 
25632.019097427 171221.66666667 
25888.339288402       167257 
26147.222681286       160934 
26408.694908098       154379 
26672.781857179     152703.5 
26939.509675751       147259 
27208.904772509 142378.66666667 
27480.993820234 136809.33333333 
27755.803758436       132973 
28033.361796021 128983.66666667 
28313.695413981 124530.66666667 
28596.832368121 119795.66666667 
28882.800691802       115703 
29171.62869872 110679.66666667 
29463.344985707       107298 
29757.978435564       103103 
30055.55821992 99494.633333333 
30356.113802119 95861.233333333 
30659.67494014      92318.1 
30966.271689541 89081.233333333 
31275.934406437 86061.433333333 
31588.693750501      82930.7 
31904.580688006      80429.5 
32223.626494886     76810.55 
32545.862759835      74170.2 
32871.321387434     71437.55 
33200.034601308     68285.05 
33532.034947321      66118.3 
33867.355296794     63627.35 
34206.028849762     61258.55 
34548.08913826      59242.9 
34893.570029642     57445.95 
35242.505729939      54926.3 
35594.930787238     52541.15 
35950.880095111      50617.3 
36310.388896062      48490.8 
36673.492785022      46968.2 
37040.227712872     44890.95 
37410.629990001      42978.7 
37784.736289901      41605.2 
38162.5836528     40323.85 
38544.209489328     38534.85 
38929.651584221      37294.9 
39318.948100064      35608.9 
39712.137581064      34093.6 
40109.258956875     33082.55 
40510.351546444     31835.25 
40915.455061908      30806.2 
41324.609612527      29619.1 
41737.855708653     28435.85 
42155.234265739     27602.05 
42576.786608396     26181.25 
43002.55447448     24403.25 
43432.580019225     22883.85 
43866.905819417      21447.1 
44305.574877612     20080.65 
44748.630626388      19496.1 
45196.116932652     18447.15 
45648.078101978      17772.4 
46104.558882998      17084.5 
46565.604471828      16723.2 
47031.260516546 16137.933333333 
47501.573121712      15552.8 
47976.588852929        15153 
48456.354741458 14611.866666667 
48940.918288873      14059.2 
49430.327471761 13588.633333333 
49924.630746479      13096.3 
50423.877053944 12640.133333333 
50928.115824483      12179.3 
51437.396982728      11839.8 
51951.770952555      11387.3 
52471.288662081      11096.8 
52996.001548702      10625.8 
53525.961564189     10298.95 
54061.221179831      9974.36 
54601.833391629      9595.09 
55147.851725545     9340.195 
55699.330242801 9052.9333333333 
56256.323545229      8720.22 
56818.886780681       8397.2 
57387.075648488 8112.8833333333 
57960.946404973      7812.07 
58540.555869022 7509.4633333333 
59125.961427713      7256.02 
59717.22104199 7004.6333333333 
60314.39325241 6735.9666666667 
60917.537184934 6495.1233333333 
61526.712556783 6291.5366666667 
62141.979682351 6044.3466666667 
62763.399479174 5844.4033333333 
63391.033473966      5650.21 
64024.943808706 5411.3842857143 
64665.193246793      5230.18 
65311.845179261     5063.525 
65964.963631053      4835.46 
66624.613267364      4671.49 
67290.859400038     4511.455 
67963.767994038     4316.425 
68643.405673978      4173.14 
69329.839730718      4037.05 
70023.138128025     3858.975 
70723.369509305     3698.015 
71430.603204399      3578.08 
72144.909236443      3464.58 
72866.358328807     3319.305 
73595.021912095     3179.655 
74330.972131216     3046.715 
75074.281852528     2924.705 
75825.024671053      2834.48 
76583.274917764      2743.82 
77349.107666942      2634.09 
78122.598743611     2528.405 
78903.824731047     2428.275 
79692.862978358      2332.98 
80489.791608141      2244.23 
81294.689524223      2159.39 
82107.636419465     2081.855 
82928.712783659      2002.75 
83757.999911496     1929.265 
84595.579910611 1842.4033333333 
85441.535709717      1759.41 
86295.951066814     1696.645 
87158.910577482     1636.685 
88030.499683257      1576.65 
88910.80468009     1522.735 
89799.912726891      1457.63 
90697.91185416     1394.855 
91604.890972701     1349.845 
92520.939882428      1293.95 
93446.149281253     1240.805 
94380.610774065     1199.785 
95324.416881806      1151.81 
96277.661050624     1105.545 
97240.43766113 1060.5433333333 
98212.842037741      1020.41 
99194.970458119     988.1475 
100186.9201627       965.76 
199060.83304441      62.1898 
399467.9878358      3.88432 
594753.39981818     0.760975 
793700.71765891     0.238776 
997811.18987739    0.0970911 
1193529.3359837    0.0465341 
1399507.0114645    0.0249891 
