#  WAVELENGTH	        FLUX	
#  (ANGSTROM)	(ERG/CM2/S/A)	
############	############	
545.01839955988  3.99521E-25 
555.97326939103  1.51509E-24 
567.14833210579  5.46764E-24 
578.54801358112  1.86316E-23 
584.33349371693  6.20334E-23 
596.07859694064  1.95889E-22 
608.05977673914  5.94485E-22 
614.14037450653  1.73547E-21 
626.48459603412  4.88725E-21 
639.0769364144  1.33033E-20 
645.46770577855  3.50391E-20 
651.92238283633  7.43326E-20 
658.44160666469  1.41066E-19 
671.67628295866  3.44536E-19 
678.39304578824  8.19015E-19 
692.02874600859  1.89338E-18 
698.94903346867  4.24563E-18 
712.99790904139  1.01374E-17 
720.12788813181  2.17264E-17 
734.60245868325  4.23346E-17 
741.94848327009  8.69902E-17 
749.36796810279  1.75225E-16 
764.43026426165  3.46419E-16 
772.07456690427  6.70636E-16 
779.79531257331  1.27742E-15 
787.59326569905  2.36365E-15 
803.4238903396  4.36678E-15 
811.45812924299  7.93419E-15 
819.57271053542  1.41371E-14 
827.76843764078  2.48021E-14 
844.40658323736  4.28877E-14 
852.85064906973  7.31275E-14 
861.37915556043   1.2298E-13 
869.99294711603  2.03549E-13 
878.69287658719  3.34703E-13 
887.47980535306   5.4222E-13 
896.3546034066  8.67512E-13 
914.37133093507   1.15027E-9 
923.51504424442   4.86662E-9 
932.75019468686   7.00003E-9 
942.07769663373    1.0927E-8 
951.49847360007   1.69156E-8 
961.01345833607    2.7966E-8 
970.62359291943   3.87488E-8 
980.32982884862   5.88651E-8 
990.13312713711   8.61589E-8 
1000.0344584085   1.27593E-7 
1010.0348029926   1.87004E-7 
1020.1351510225   2.51936E-7 
1030.3365025327   4.11891E-7 
1040.639867558   5.87506E-7 
1051.0462662336   7.43323E-7 
1061.556728896    1.1298E-6 
1072.1722961849   1.57952E-6 
1082.8940191468   2.20177E-6 
1093.7229593382   2.78385E-6 
1104.6601889316   4.31989E-6 
1115.7067908209   7.33979E-6 
1126.8638587291   1.06174E-5 
1138.1324973164   1.44531E-5 
1149.5138222896   1.92651E-5 
1161.0089605125   2.52015E-5 
1172.6190501176   3.42861E-5 
1184.3452406188   4.90928E-5 
1196.188693025   6.49953E-5 
1208.1505799552   4.76991E-5 
1220.2320857548  0.000103043 
1232.4344066123  0.000150549 
1244.7587506785 0.0002137445 
1257.2063381852  0.000298493 
1269.7784015671  0.000370397 
1282.4761855828  0.000484664 
1295.3009474386  0.000646119 
1308.253956913  0.000814275 
1321.3364964821  0.000958401 
1334.5498614469  0.001301755 
1347.8953600614   0.00180555 
1361.374313662   0.00214122 
1374.9880567986   0.00274565 
1388.7379373666   0.00365615 
1402.6253167403   0.00507439 
1416.6515699077   0.00649428 
1430.8180856068 0.0088776541176471 
1445.1262664628 0.010896811538462 
1459.5775291275    0.0146679 
1474.1733044187   0.01790475 
1488.9150374629    0.0249516 
1503.8041878376 0.030481904545455 
1518.8422297159    0.0410632 
1534.0306520131     0.116456 
1549.3709585332     0.203881 
1564.8646681186    0.3262615 
1580.5133147997      0.53718 
1596.3184479477     0.586076 
1612.2816324272     0.643428 
1628.4044487515     0.897678 
1644.688493239     1.099396 
1661.1353781714 1.5688690909091 
1677.7467319531      3.01825 
1694.5241992726      4.39715 
1711.4694412654     5.642425 
1728.584135678     8.928225 
1745.8699770348      11.2191 
1763.3286768051     11.96755 
1780.9619635732      18.6033 
1798.7715832089      23.1726 
1816.759299041      29.3172 
1834.9268920314      29.9082 
1853.2761609517     36.96875 
1871.8089225613      46.9943 
1890.5270117869     63.14675 
1909.4322819047      77.8567 
1928.5266047238      72.1719 
1947.811870771 127.88736363636 
1967.2899894787 153.19235294118 
1986.9628893735 164.57195238095 
2006.8325182673     180.6275 
2026.9008434499     230.1015 
2047.1698518844      266.376 
2067.6415504033    300.52385 
2088.3179659073     584.7035 
2109.2011455664      722.128 
2130.293157022      825.209 
2151.5960885923      825.663 
2173.1120494782     854.6395 
2194.843169973      1133.13 
2216.7916016727      1397.34 
2238.9595176894      1840.94 
2261.3491128663      1573.06 
2283.962603995 2046.6766666667 
2306.8022300349      2888.38 
2329.8702523353     3158.365 
2353.1689548586 2850.1566666667 
2376.7006444072     3892.325 
2400.4676508513      4765.89 
2424.4723273598      6299.53 
2448.7170506334       7448.4 
2473.2042211397 5435.0666666667 
2497.9362633511 6430.0269565217 
2522.9156259846 9036.5603703704 
2548.1447822445      14071.3 
2573.6262300669      16982.6 
2599.3624923676 23189.433333333 
2625.3561172913     43865.05 
2651.6096784642 57012.633333333 
2678.1257752488     49233.75 
2704.9070330013      42912.3 
2731.9561033313      42030.5 
2759.2756643647 59115.566666667 
2786.8684210083      37564.6 
2814.7371052184 60618.233333333 
2842.8844762706 32322.333333333 
2871.3133210333      89787.4 
2900.0264542436       176351 
2929.026718786     172226.5 
2958.3169859739       165159 
2987.9001558336       150530 
3017.779157392       209130 
3047.9569489659       277887 
3078.4365184556       285299 
3109.2208836401       465915 
3140.3130924765       597338 
3171.7162234013       512076 
3203.4333856353     474054.5 
3235.4677194916       730456 
3267.8223966866      1019200 
3300.5006206534     848856.5 
3333.50562686       774205 
3366.8406831286     537183.5 
3400.5090899598       642755 
3434.5141808594       661132 
3468.859322668     806173.5 
3503.5479158947       971905 
3538.5833950537     810628.5 
3573.9692290042       591488 
3609.7089212942       933320 
3645.8060105072      1464710 
3682.2640706123      1197510 
3719.0867113184       576829 
3756.2775784316      1128630 
3793.8403542159     681723.5 
3831.778757758     625317.5 
3870.0965453356       966192 
3908.797510789       971387 
3947.8854858969       958929 
3987.3643407558      2226380 
4027.2379841634      2055510 
4067.510364005      2202135 
4108.1854676451      2272505 
4149.2673223215      2062160 
4190.7599955447      1968670 
4232.6675955002      2194150 
4274.9942714552      1838555 
4317.7442141697      2773770 
4360.9216563114      2821405 
4404.5308728746      2846545 
4448.5761816033 3293743.3333333 
4493.0619434193      3824945 
4537.9925628535      3929755 
4583.3724884821      3914615 
4629.2062133669      3984460 
4675.4982755006      3914285 
4722.2532582556      4022825 
4769.4757908381      4098080 
4817.1705487465      4204755 
4865.342254234 3875906.6666667 
4913.9956767763      3899375 
4963.1356335441 3549483.3333333 
5012.7669898795      3452500 
5062.8946597783 3367276.6666667 
5113.5236063761      3081110 
5164.6588424398 2575003.3333333 
5216.3054308642      3943470 
5268.4684851729      3972470 
5321.1531700246      4030810 
5374.3647017249      3983135 
5428.1083487421      4172850 
5482.3894322295 4193776.6666667 
5537.2133265518 4194896.6666667 
5592.5854598173      4329725 
5648.5113144155      4325840 
5704.9964275597 4414026.6666667 
5762.0463918353 4407236.6666667 
5819.6668557536 4514016.6666667 
5877.8635243112      3945030 
5936.6421595543      4458280 
5996.0085811498 4421946.6666667 
6055.9686669613 4340976.6666667 
6116.5283536309 3935076.6666667 
6177.6936371672 4212676.6666667 
6239.4705735389      4116960 
6301.8652792743 4038706.6666667 
6364.883932067 4081223.3333333 
6428.5327713877    3969387.5 
6492.8180991016 4080753.3333333 
6557.7462800926 4009673.3333333 
6623.3237428935      4015760 
6689.5569803225      3987870 
6756.4525501257 3936026.6666667 
6824.0170756269    3901237.5 
6892.2572463832      3841560 
6961.179818847    3758752.5 
7030.7916170355 3725973.3333333 
7101.0995332059      3621975 
7172.1105285379 3545326.6666667 
7243.8316338233      3566490 
7316.2699501615      3523910 
7389.4326496631    3449237.5 
7463.3269761598      3477795 
7537.9602459214    3438222.5 
7613.3398483806 3376573.3333333 
7689.4732468644    3344522.5 
7766.367979333    3351772.5 
7844.0316591264      3276070 
7922.4719757176      3157385 
8001.6966954748      3143420 
8081.7136624296    3080232.5 
8162.5307990539      2974925 
8244.1561070444    3009972.5 
8326.5976681148      2891615 
8409.863644796      2887964 
8493.9622812439      2680140 
8578.9019040564    2829297.5 
8664.6909230969      2661162 
8751.3378323279    2710217.5 
8838.8512106512      2738050 
8927.2397227577      2653774 
9016.5121199853      2649485 
9106.6772411851      2560482 
9197.744013597      2456520 
9289.721453733      2471506 
9382.6186682703      2376390 
9476.444854953      2377736 
9571.2093035025    2344827.5 
9666.9213965375      2300024 
9763.5906105029      2280706 
9861.226516608      2275592 
9959.838781774      2252588 
10059.437169592      2211840 
10160.031541288      2162060 
10261.631856701      2141455 
10364.248175268      2104885 
10467.89065702      2074370 
10572.56956359 2013716.6666667 
10678.295259226      1963880 
10785.078211819      1881115 
10892.928993937      1836645 
11001.858283876      1797845 
11111.876866715      1788655 
11222.995635382      1755940 
11335.225591736      1707865 
11448.577847653      1732115 
11563.06362613 1680093.3333333 
11678.694262391      1670240 
11795.481205015      1608320 
11913.436017065 1593233.3333333 
12032.570377236      1565420 
12152.896081008      1585620 
12274.425041818 1548703.3333333 
12397.169292236      1519155 
12521.140985159 1497503.3333333 
12646.35239501      1465005 
12772.81591896 1429263.3333333 
12900.54407815      1407370 
13029.549518932      1377350 
13159.845014121 1355066.6666667 
13291.443464262      1340530 
13424.357898905 1332226.6666667 
13558.601477894      1289890 
13694.187492673 1280256.6666667 
13831.129367599      1259525 
13969.440661275      1231150 
14109.135067888 1181836.6666667 
14250.226418567      1152060 
14392.728682753 1131973.3333333 
14536.65596958 1116314.3333333 
14682.022529276 1081923.3333333 
14828.842754569      1065390 
14977.131182115      1017339 
15126.902493936      1046880 
15278.171518875 1037543.3333333 
15430.953234064      1013610 
15585.262766404       992948 
15741.115394068 926931.33333333 
15898.526548009 942381.57142857 
16057.511813489       921943 
16218.086931624       911996 
16380.26780094       888942 
16544.07047895     875695.5 
16709.511183739       829265 
16876.606295577       828917 
17045.372358532       785479 
17215.826082118     748662.5 
17387.984342939     727858.5 
17561.864186368       713074 
17737.482828232     690735.5 
17914.857656514       666016 
18094.006233079       636239 
18274.94629541       602980 
18457.695758364       595046 
18642.272715948       563298 
18828.695443107     542678.5 
19016.982397539       534978 
19207.152221514     510321.5 
19399.223743729       489552 
19593.215981166     472033.5 
19789.148140978       458233 
19987.039622388       452652 
20186.910018612     428776.5 
20388.779118798       419714 
20592.666909986     401627.5 
20798.593579086       385932 
21006.579514877       377337 
21216.645310025     364890.5 
21428.811763126       354379 
21643.099880757 334848.33333333 
21859.530879564     322110.5 
22078.12618836     314843.5 
22298.907450244     303485.5 
22521.896524746       293160 
22747.115489993 277199.33333333 
22974.586644893     266529.5 
23204.332511342       247401 
23436.375836456 240779.66666667 
23670.73959482       226005 
23907.446990769     226470.5 
24146.521460676 213351.33333333 
24387.986675283     202679.5 
24631.866542036       197983 
24878.185207456       194713 
25126.967059531 186857.33333333 
25378.236730126       179383 
25632.019097427 174719.33333333 
25888.339288402     170456.5 
26147.222681286 163762.33333333 
26408.694908098 156442.33333333 
26672.781857179       154949 
26939.509675751 149383.66666667 
27208.904772509       144133 
27480.993820234       138306 
27755.803758436       134152 
28033.361796021 129989.66666667 
28313.695413981       125375 
28596.832368121 120688.66666667 
28882.800691802 116315.66666667 
29171.62869872 110833.66666667 
29463.344985707 107688.33333333 
29757.978435564 103386.33333333 
30055.55821992      99823.6 
30356.113802119      96080.6 
30659.67494014 92516.033333333 
30966.271689541      89130.3 
31275.934406437 86129.966666667 
31588.693750501 83090.366666667 
31904.580688006     80565.24 
32223.626494886     76926.75 
32545.862759835      74311.1 
32871.321387434     71517.45 
33200.034601308     68335.25 
33532.034947321      66217.9 
33867.355296794     63624.05 
34206.028849762      61344.7 
34548.08913826      59364.9 
34893.570029642      57541.4 
35242.505729939      55005.9 
35594.930787238     52596.95 
35950.880095111     50676.15 
36310.388896062      48555.6 
36673.492785022      46951.4 
37040.227712872        45008 
37410.629990001     43136.25 
37784.736289901     41709.65 
38162.5836528     40363.45 
38544.209489328     38537.25 
38929.651584221      37330.6 
39318.948100064     35659.45 
39712.137581064     34131.25 
40109.258956875     33072.35 
40510.351546444     31843.05 
40915.455061908     30796.15 
41324.609612527        29629 
41737.855708653     28333.55 
42155.234265739     27599.95 
42576.786608396      26219.2 
43002.55447448     24409.55 
43432.580019225     22873.05 
43866.905819417      21463.1 
44305.574877612     20191.25 
44748.630626388     19549.15 
45196.116932652      18586.3 
45648.078101978      17933.1 
46104.558882998      17277.7 
46565.604471828      16924.3 
47031.260516546 16339.466666667 
47501.573121712      15753.8 
47976.588852929     15321.55 
48456.354741458      14768.1 
48940.918288873        14226 
49430.327471761 13716.266666667 
49924.630746479     13207.85 
50423.877053944 12759.033333333 
50928.115824483      12296.5 
51437.396982728 11938.833333333 
51951.770952555      11502.4 
52471.288662081 11179.333333333 
52996.001548702 10714.566666667 
53525.961564189      10383.9 
54061.221179831 10041.926666667 
54601.833391629 9667.8366666667 
55147.851725545      9399.71 
55699.330242801      9102.06 
56256.323545229 8770.0366666667 
56818.886780681 8442.4966666667 
57387.075648488 8152.2366666667 
57960.946404973      7846.82 
58540.555869022 7545.3433333333 
59125.961427713 7287.3066666667 
59717.22104199 7030.5033333333 
60314.39325241 6759.4033333333 
60917.537184934 6516.5666666667 
61526.712556783 6305.2766666667 
62141.979682351      6052.64 
62763.399479174 5859.8633333333 
63391.033473966 5659.7733333333 
64024.943808706      5420.68 
64665.193246793      5233.84 
65311.845179261     5068.365 
65964.963631053     4837.795 
66624.613267364      4670.23 
67290.859400038      4510.66 
67963.767994038     4313.325 
68643.405673978      4170.05 
69329.839730718     4032.315 
70023.138128025     3852.305 
70723.369509305     3691.855 
71430.603204399      3571.79 
72144.909236443     3458.435 
72866.358328807     3312.165 
73595.021912095     3172.525 
74330.972131216     3040.585 
75074.281852528     2917.985 
75825.024671053      2826.82 
76583.274917764      2736.15 
77349.107666942     2625.235 
78122.598743611      2519.16 
78903.824731047      2419.12 
79692.862978358     2323.885 
80489.791608141     2235.635 
81294.689524223      2151.95 
82107.636419465      2074.81 
82928.712783659     1996.215 
83757.999911496     1922.325 
84595.579910611 1836.2333333333 
85441.535709717      1753.88 
86295.951066814      1690.92 
87158.910577482     1631.285 
88030.499683257      1571.42 
88910.80468009     1517.665 
89799.912726891 1452.9366666667 
90697.91185416     1390.205 
91604.890972701      1345.15 
92520.939882428      1289.72 
93446.149281253      1236.75 
94380.610774065      1196.01 
95324.416881806      1148.35 
96277.661050624      1101.91 
97240.43766113      1057.31 
98212.842037741     1017.245 
99194.970458119     985.1825 
100186.9201627      963.098 
199060.83304441      62.1407 
399467.9878358      3.89233 
594753.39981818     0.763904 
793700.71765891     0.239971 
997811.18987739    0.0976409 
1193529.3359837    0.0468165 
1399507.0114645    0.0251429 
