#  WAVELENGTH	        FLUX	
#  (ANGSTROM)	(ERG/CM2/S/A)	
############	############	
        90.9   1.83103E-8 
    92.72709   6.24591E-8 
95.53681355409   1.95997E-7 
97.457103506527   3.94914E-7 
99.415991287008   8.65021E-7 
101.41425271188   2.23558E-6 
103.45267919139   4.43255E-6 
105.53207804313   8.58839E-6 
107.6532728118   1.80702E-5 
109.81710359532   4.51188E-5 
113.14467165136   0.00014286 
117.73879903054  0.000446235 
120.10534889105   0.00120301 
123.7446610678   0.00305641 
126.23192875526   0.00548896 
127.49424804281   0.00756703 
130.05688242847    0.0125001 
131.35745125276    0.0194409 
132.67102576529    0.0274439 
135.33771338317    0.0494001 
139.43858143639    0.0984423 
142.24129692326     0.198356 
146.55135046134     0.405787 
150.99200293167     0.845013 
154.02694219059         1.75 
158.69411256591      3.18056 
161.88386422848      5.49636 
165.13772989948      10.2589 
170.14156825316      18.8274 
171.84298393569      28.8203 
175.2970279128      46.6336 
178.82049817385       72.783 
180.60870315558      86.4673 
186.0813274699      152.832 
189.82156215205      272.058 
193.6369755513      385.866 
197.52907875988      632.208 
201.49941324296       875.94 
203.51440737539      1242.74 
209.68109743327      2123.48 
216.03464436659       3546.1 
218.19499081026      4949.69 
222.58071012555      6430.52 
224.8065172268      9165.17 
229.32512822306      3345920 
233.93456330034      8561680 
238.63664802268     11305800 
245.86757709442     16893300 
250.80951539401     31846100 
255.85078665343     48580200 
258.40929451997     57412400 
263.60332133982    226662000 
266.23935455322    291127000 
271.59076557974    377577000 
277.04973996789    252673000 
282.61843974125    631963000 
288.29907038004   1098250000 
294.09388169468    886873000 
300.00516871675   2274870000 
306.03527260795   7996150000 
315.30844740325   1897620000 
324.86260866801   3352220000 
334.70627057326   3152050000 
344.8482052779   3725490000 
355.29745074603   9691300000 
362.43892950602  25476500000 
373.42119150899  37350200000 
384.7362270329  32212400000 
392.46942519626  66342300000 
404.36164124913 131275000000 
412.48931023824 115917000000 
420.78034537403 106442000000 
429.23803031605 100383000000 
437.8657147254 128612000000 
446.66681559138 131635000000 
455.64481858477  97259000000 
469.4513122327 115378000000 
478.88728360858 143391000000 
488.51291800911  88884000000 
498.3320276611 162627000000 
503.31534793771 110371000000 
508.34850141708 176822000000 
518.56630629557 161866000000 
528.98948905211 145301000000 
539.62217778206 114184000000 
545.01839955988  88886100000 
555.97326939103 128888000000 
567.14833210579 175749000000 
578.54801358112 170738000000 
584.33349371693 169447000000 
596.07859694064 120637000000 
608.05977673914 105578000000 
614.14037450653 153750000000 
626.48459603412 135277000000 
639.0769364144 163550000000 
645.46770577855 147063000000 
651.92238283633 116996000000 
658.44160666469 152379000000 
671.67628295866 162185000000 
678.39304578824 128292000000 
692.02874600859 154584000000 
698.94903346867 117129000000 
712.99790904139 152337000000 
720.12788813181 153958000000 
734.60245868325 152254000000 
741.94848327009 137802000000 
749.36796810279 134123000000 
764.43026426165 112074000000 
772.07456690427 129918000000 
779.79531257331 103967000000 
787.59326569905 123571000000 
803.4238903396 125305000000 
811.45812924299 123422000000 
819.57271053542 123864000000 
827.76843764078  99998500000 
844.40658323736 115674000000 
852.85064906973 105976000000 
861.37915556043 113655000000 
869.99294711603 112981000000 
878.69287658719 109110000000 
887.47980535306 106276000000 
896.3546034066 101834000000 
914.37133093507  77067300000 
923.51504424442 119766000000 
932.75019468686 160595000000 
942.07769663373 174443000000 
951.49847360007 194523000000 
961.01345833607 203551000000 
970.62359291943 148988000000 
980.32982884862 175718000000 
990.13312713711 151910000000 
1000.0344584085 150036000000 
1010.0348029926 156814000000 
1020.1351510225 147533000000 
1030.3365025327 163965000000 
1040.639867558 171077000000 
1051.0462662336 164746000000 
1061.556728896 154133000000 
1072.1722961849 156029000000 
1082.8940191468 142375000000 
1093.7229593382 147443000000 
1104.6601889316 141821500000 
1115.7067908209 132335000000 
1126.8638587291 136822000000 
1138.1324973164 136856000000 
1149.5138222896 126157000000 
1161.0089605125 117658000000 
1172.6190501176  99812900000 
1184.3452406188 108143500000 
1196.188693025 102584000000 
1208.1505799552  88921400000 
1220.2320857548  96031300000 
1232.4344066123  95080100000 
1244.7587506785  92616200000 
1257.2063381852  94946400000 
1269.7784015671  96565800000 
1282.4761855828  94849400000 
1295.3009474386  90595500000 
1308.253956913  90584400000 
1321.3364964821  88692100000 
1334.5498614469  85739750000 
1347.8953600614  80959000000 
1361.374313662  77516700000 
1374.9880567986  73601100000 
1388.7379373666  70046500000 
1402.6253167403  69823200000 
1416.6515699077  66675600000 
1430.8180856068 68496717647.059 
1445.1262664628 64690030769.231 
1459.5775291275  63226500000 
1474.1733044187  63394100000 
1488.9150374629  61216700000 
1503.8041878376 59904309090.909 
1518.8422297159  58214600000 
1534.0306520131  46995350000 
1549.3709585332  43002500000 
1564.8646681186  50007600000 
1580.5133147997  50077000000 
1596.3184479477  47449100000 
1612.2816324272  46249150000 
1628.4044487515  46636900000 
1644.688493239  45367700000 
1661.1353781714 44240031818.182 
1677.7467319531  45379300000 
1694.5241992726  43931600000 
1711.4694412654  40428500000 
1728.584135678  41280100000 
1745.8699770348  40115200000 
1763.3286768051  38654350000 
1780.9619635732  37657550000 
1798.7715832089  36033700000 
1816.759299041  34853000000 
1834.9268920314  34583000000 
1853.2761609517  34025100000 
1871.8089225613  32453750000 
1890.5270117869  32209850000 
1909.4322819047  30645350000 
1928.5266047238  30507750000 
1947.811870771 28911572727.273 
1967.2899894787 28525205882.353 
1986.9628893735 27819761904.762 
2006.8325182673  27080650000 
2026.9008434499  25943500000 
2047.1698518844  18410800000 
2067.6415504033  19510545000 
2088.3179659073  23048650000 
2109.2011455664  22903100000 
2130.293157022  22329000000 
2151.5960885923  21324500000 
2173.1120494782  21001950000 
2194.843169973  20425500000 
2216.7916016727  19895750000 
2238.9595176894  18976250000 
2261.3491128663  18761350000 
2283.962603995  17592500000 
2306.8022300349  17218500000 
2329.8702523353  16775000000 
2353.1689548586  15819400000 
2376.7006444072  14788900000 
2400.4676508513  14729850000 
2424.4723273598 14443466666.667 
2448.7170506334  13868000000 
2473.2042211397 12788566666.667 
2497.9362633511 12583008695.652 
2522.9156259846 12554140740.741 
2548.1447822445  12217400000 
2573.6262300669  11700600000 
2599.3624923676 11298133333.333 
2625.3561172913  10976200000 
2651.6096784642 10572966666.667 
2678.1257752488  10228800000 
2704.9070330013 9987706666.6667 
2731.9561033313 9516523333.3333 
2759.2756643647 9194203333.3333 
2786.8684210083   8845945000 
2814.7371052184 8630226666.6667 
2842.8844762706 8311446666.6667 
2871.3133210333 7975486666.6667 
2900.0264542436   7760970000 
2929.026718786   7520895000 
2958.3169859739   7221220000 
2987.9001558336   6912435000 
3017.779157392   6611830000 
3047.9569489659   6415795000 
3078.4365184556   6241950000 
3109.2208836401   6039110000 
3140.3130924765   5791555000 
3171.7162234013   5610170000 
3203.4333856353   5363120000 
3235.4677194916   5251220000 
3267.8223966866   5036365000 
3300.5006206534   4827500000 
3333.50562686   4618780000 
3366.8406831286   4508700000 
3400.5090899598   4334505000 
3434.5141808594   4171340000 
3468.859322668   4077540000 
3503.5479158947   3918840000 
3538.5833950537   3756460000 
3573.9692290042   3646260000 
3609.7089212942   3496818000 
3645.8060105072   2982140000 
3682.2640706123   2893135000 
3719.0867113184   2902765000 
3756.2775784316   2948000000 
3793.8403542159   2901580000 
3831.778757758   2899755000 
3870.0965453356   2636250000 
3908.797510789   2763955000 
3947.8854858969   2550865000 
3987.3643407558   2579415000 
4027.2379841634   2467305000 
4067.510364005   2356620000 
4108.1854676451   2220730000 
4149.2673223215 2209176666.6667 
4190.7599955447   2103665000 
4232.6675955002   2047700000 
4274.9942714552   1972275000 
4317.7442141697   1813170000 
4360.9216563114   1826195000 
4404.5308728746   1763460000 
4448.5761816033   1696780000 
4493.0619434193   1616740000 
4537.9925628535   1555080000 
4583.3724884821   1522435000 
4629.2062133669   1443310000 
4675.4982755006   1385825000 
4722.2532582556   1374535000 
4769.4757908381   1319930000 
4817.1705487465   1255955000 
4865.342254234 1188583333.3333 
4913.9956767763   1172485000 
4963.1356335441 1129936666.6667 
5012.7669898795   1087140000 
5062.8946597783 1049436666.6667 
5113.5236063761   1010210000 
5164.6588424398    974718000 
5216.3054308642    938878000 
5268.4684851729 905895666.66667 
5321.1531700246 868817333.33333 
5374.3647017249    829653000 
5428.1083487421 809579666.66667 
5482.3894322295 776115666.66667 
5537.2133265518 743461333.33333 
5592.5854598173    720241000 
5648.5113144155 691688333.33333 
5704.9964275597 615529666.66667 
5762.0463918353    591783000 
5819.6668557536 576015333.33333 
5877.8635243112    567414000 
5936.6421595543 561466333.33333 
5996.0085811498    548603000 
6055.9686669613 529337333.33333 
6116.5283536309 509670333.33333 
6177.6936371672 491780666.66667 
6239.4705735389 474698333.33333 
6301.8652792743    456549000 
6364.883932067 440038666.66667 
6428.5327713877    423174000 
6492.8180991016 402331666.66667 
6557.7462800926    381663000 
6623.3237428935 377996666.66667 
6689.5569803225    361591500 
6756.4525501257    349551000 
6824.0170756269    334531500 
6892.2572463832 323016333.33333 
6961.179818847    310549000 
7030.7916170355    298400000 
7101.0995332059    286932000 
7172.1105285379 276634666.66667 
7243.8316338233    266943250 
7316.2699501615    257346000 
7389.4326496631    247923750 
7463.3269761598    237653500 
7537.9602459214    227010500 
7613.3398483806 220273666.66667 
7689.4732468644    212198250 
7766.367979333    204383250 
7844.0316591264    196180750 
7922.4719757176    188920500 
8001.6966954748    181781250 
8081.7136624296    174983000 
8162.5307990539    163537500 
8244.1561070444    153910250 
8326.5976681148    148375750 
8409.863644796    143200600 
8493.9622812439    138404250 
8578.9019040564    134746000 
8664.6909230969    130374400 
8751.3378323279    127897750 
8838.8512106512    122293000 
8927.2397227577    118404400 
9016.5121199853    114399000 
9106.6772411851    110996400 
9197.744013597    104088925 
9289.721453733    102287900 
9382.6186682703     98718880 
9476.444854953     92613800 
9571.2093035025     91291900 
9666.9213965375     87828600 
9763.5906105029     84523200 
9861.226516608     81392260 
9959.838781774 77807073.333333 
10059.437169592     73609700 
10160.031541288     72698500 
10261.631856701     69875050 
10364.248175268     67148700 
10467.89065702     64894150 
10572.56956359     61952200 
10678.295259226     59172300 
10785.078211819     56914850 
10892.928993937     53541550 
11001.858283876     53096250 
11111.876866715     51284450 
11222.995635382     49088000 
11335.225591736     47014500 
11448.577847653     45435650 
11563.06362613 43204566.666667 
11678.694262391     41746250 
11795.481205015     40353700 
11913.436017065     38695200 
12032.570377236     37173700 
12152.896081008     36002400 
12274.425041818 34594866.666667 
12397.169292236     33244900 
12521.140985159 31955866.666667 
12646.35239501     30739100 
12772.81591896     29012200 
12900.54407815 28242633.333333 
13029.549518932     27202300 
13159.845014121     26202600 
13291.443464262     25245950 
13424.357898905 24333933.333333 
13558.601477894 23295033.333333 
13694.187492673 22306566.666667 
13831.129367599     21524850 
13969.440661275     20777800 
14109.135067888 19921633.333333 
14250.226418567 19106966.666667 
14392.728682753 18340133.333333 
14536.65596958 17612086.666667 
14682.022529276 16851066.666667 
14828.842754569 16257766.666667 
14977.131182115     15626400 
15126.902493936     15027200 
15278.171518875 14452433.333333 
15430.953234064 13904566.666667 
15585.262766404 13380166.666667 
15741.115394068 12879333.333333 
15898.526548009 12374728.571429 
16057.511813489     11847900 
16218.086931624     11480750 
16380.26780094     10974700 
16544.07047895     10696750 
16709.511183739     10109135 
16876.606295577      9845900 
17045.372358532      9503615 
17215.826082118      8990010 
17387.984342939      8669745 
17561.864186368      8388310 
17737.482828232      8111425 
17914.857656514      7759545 
18094.006233079      7327945 
18274.94629541      7110790 
18457.695758364      6883800 
18642.272715948      6518360 
18828.695443107      6391935 
19016.982397539      6128690 
19207.152221514      5880475 
19399.223743729      5562890 
19593.215981166      5421955 
19789.148140978      5208010 
19987.039622388      5005335 
20186.910018612      4811925 
20388.779118798      4626610 
20592.666909986      4449415 
20798.593579086      4284905 
21006.579514877      4123930 
21216.645310025      3973550 
21428.811763126      3826990 
21643.099880757 3615126.6666667 
21859.530879564      3493315 
22078.12618836      3369580 
22298.907450244      3251235 
22521.896524746      3138080 
22747.115489993 3006486.6666667 
22974.586644893      2879810 
23204.332511342      2782700 
23436.375836456 2666873.3333333 
23670.73959482      2556760 
23907.446990769      2472660 
24146.521460676 2372416.6666667 
24387.986675283      2277550 
24631.866542036 2186826.6666667 
24878.185207456      2100495 
25126.967059531 2018316.6666667 
25378.236730126      1941265 
25632.019097427 1865386.6666667 
25888.339288402      1795065 
26147.222681286 1703683.3333333 
26408.694908098      1651880 
26672.781857179      1583880 
26939.509675751      1533940 
27208.904772509 1467533.3333333 
27480.993820234 1397316.6666667 
27755.803758436      1355425 
28033.361796021 1308026.6666667 
28313.695413981 1253723.3333333 
28596.832368121 1193136.6666667 
28882.800691802 1153363.3333333 
29171.62869872 1106926.6666667 
29463.344985707 1062826.6666667 
29757.978435564      1020860 
30055.55821992       974924 
30356.113802119 939702.33333333 
30659.67494014       906769 
30966.271689541       872381 
31275.934406437 839551.66666667 
31588.693750501 808238.33333333 
31904.580688006     779338.2 
32223.626494886     745267.5 
32545.862759835       718201 
32871.321387434       685306 
33200.034601308     660304.5 
33532.034947321       637035 
33867.355296794     614878.5 
34206.028849762       586718 
34548.08913826       566617 
34893.570029642     547443.5 
35242.505729939     523070.5 
35594.930787238     500025.5 
35950.880095111       478241 
36310.388896062       462625 
36673.492785022     447735.5 
37040.227712872       426678 
37410.629990001       407697 
37784.736289901     393591.5 
38162.5836528       377449 
38544.209489328       362097 
38929.651584221     347216.5 
39318.948100064       333645 
39712.137581064       320201 
40109.258956875       304347 
40510.351546444     295939.5 
40915.455061908       284573 
41324.609612527       272915 
41737.855708653       263412 
42155.234265739       253614 
42576.786608396       244186 
43002.55447448     235273.5 
43432.580019225       225768 
43866.905819417       216407 
44305.574877612     207031.5 
44748.630626388       199767 
45196.116932652     192798.5 
45648.078101978 184500.66666667 
46104.558882998       174298 
46565.604471828     169120.5 
47031.260516546       163512 
47501.573121712     156732.5 
47976.588852929     151566.5 
48456.354741458 145415.66666667 
48940.918288873       139553 
49430.327471761       134001 
49924.630746479     128703.5 
50423.877053944 123681.66666667 
50928.115824483       117678 
51437.396982728       114295 
51951.770952555     109985.5 
52471.288662081 105852.66666667 
52996.001548702 101138.86666667 
53525.961564189      97401.7 
54061.221179831 93848.333333333 
54601.833391629 89786.433333333 
55147.851725545     86555.15 
55699.330242801      83493.6 
56256.323545229      79980.5 
56818.886780681 76603.066666667 
57387.075648488      73490.5 
57960.946404973        70498 
58540.555869022 67056.066666667 
59125.961427713 64792.333333333 
59717.22104199      62382.3 
60314.39325241 59935.533333333 
60917.537184934      57607.2 
61526.712556783      55390.7 
62141.979682351      53263.3 
62763.399479174 51106.433333333 
63391.033473966 49348.733333333 
64024.943808706 47139.871428571 
64665.193246793      45487.5 
65311.845179261     43838.35 
65964.963631053        41748 
66624.613267364      40257.9 
67290.859400038      38686.4 
67963.767994038     37040.75 
68643.405673978      35756.5 
69329.839730718     34532.65 
70023.138128025     32977.15 
70723.369509305      31508.6 
71430.603204399      30457.7 
72144.909236443      29454.7 
72866.358328807        28178 
73595.021912095      26959.4 
74330.972131216      25251.8 
75074.281852528      24717.4 
75825.024671053        23962 
76583.274917764      23217.5 
77349.107666942      22265.1 
78122.598743611     21364.95 
78903.824731047      20507.6 
79692.862978358      19692.7 
80489.791608141        18918 
81294.689524223      18169.2 
82107.636419465      17478.8 
82928.712783659      16810.9 
83757.999911496        16174 
84595.579910611 15421.233333333 
85441.535709717      14708.6 
86295.951066814     14144.85 
87158.910577482     13544.35 
88030.499683257      13162.4 
88910.80468009      12692.3 
89799.912726891      12134.9 
90697.91185416     11605.65 
91604.890972701      11203.7 
92520.939882428 10725.866666667 
93446.149281253      10234.8 
94380.610774065      9926.17 
95324.416881806      9515.33 
96277.661050624     9123.795 
97240.43766113      8753.53 
98212.842037741      8400.74 
99194.970458119     8131.515 
100186.9201627      7936.44 
199060.83304441      485.493 
399467.9878358      29.3826 
594753.39981818      5.69396 
793700.71765891      1.77717 
997811.18987739     0.720233 
1193529.3359837     0.344342 
1399507.0114645     0.184508 
