#  WAVELENGTH	        FLUX	
#  (ANGSTROM)	(ERG/CM2/S/A)	
############	############	
420.78034537403  1.25284E-24 
429.23803031605  5.03645E-24 
437.8657147254  3.12746E-23 
446.66681559138  1.51519E-22 
455.64481858477   5.8929E-22 
469.4513122327  2.49897E-21 
478.88728360858  9.93854E-21 
488.51291800911  3.72447E-20 
498.3320276611  1.31825E-19 
503.31534793771  3.63492E-19 
508.34850141708  8.34388E-19 
518.56630629557  2.09904E-18 
528.98948905211  6.41916E-18 
539.62217778206  1.84748E-17 
545.01839955988  5.17298E-17 
555.97326939103  1.38343E-16 
567.14833210579  3.56405E-16 
578.54801358112  8.76021E-16 
584.33349371693  2.13062E-15 
596.07859694064  4.96091E-15 
608.05977673914  1.12341E-14 
614.14037450653  2.46727E-14 
626.48459603412  5.27488E-14 
639.0769364144  1.09892E-13 
645.46770577855   2.2355E-13 
651.92238283633  3.87752E-13 
658.44160666469  6.18367E-13 
671.67628295866  1.18933E-12 
678.39304578824   2.2414E-12 
692.02874600859  4.13432E-12 
698.94903346867  7.41531E-12 
712.99790904139   1.4052E-11 
720.12788813181  2.44889E-11 
734.60245868325  3.97822E-11 
741.94848327009  6.71058E-11 
749.36796810279   1.1156E-10 
764.43026426165  1.83085E-10 
772.07456690427  2.95695E-10 
779.79531257331  4.72491E-10 
787.59326569905  7.33223E-10 
803.4238903396   1.14427E-9 
811.45812924299   1.76992E-9 
819.57271053542   2.68689E-9 
827.76843764078   4.03338E-9 
844.40658323736   5.98895E-9 
852.85064906973   8.80365E-9 
861.37915556043   1.28025E-8 
869.99294711603   1.83266E-8 
878.69287658719   2.63005E-8 
887.47980535306   3.72057E-8 
896.3546034066   5.19771E-8 
914.37133093507   4.35874E-5 
923.51504424442  0.000148081 
932.75019468686  0.000210919 
942.07769663373  0.000298026 
951.49847360007  0.000432526 
961.01345833607  0.000601812 
970.62359291943  0.000831037 
980.32982884862   0.00113995 
990.13312713711   0.00155247 
1000.0344584085   0.00213668 
1010.0348029926    0.0028721 
1020.1351510225   0.00364889 
1030.3365025327   0.00501463 
1040.639867558   0.00672785 
1051.0462662336   0.00883147 
1061.556728896    0.0113402 
1072.1722961849    0.0149685 
1082.8940191468    0.0193344 
1093.7229593382    0.0244408 
1104.6601889316    0.0953392 
1115.7067908209      0.21906 
1126.8638587291     0.320955 
1138.1324973164     0.434942 
1149.5138222896     0.501007 
1161.0089605125     0.737097 
1172.6190501176     0.922054 
1184.3452406188    0.8280075 
1196.188693025     0.816521 
1208.1505799552     0.359319 
1220.2320857548      1.07692 
1232.4344066123      2.15349 
1244.7587506785    10.223965 
1257.2063381852      12.9064 
1269.7784015671      22.2918 
1282.4761855828     36.43875 
1295.3009474386      30.0185 
1308.253956913      52.4631 
1321.3364964821      61.7339 
1334.5498614469      79.0622 
1347.8953600614      92.3367 
1361.374313662      101.513 
1374.9880567986     113.8025 
1388.7379373666      136.773 
1402.6253167403     164.6175 
1416.6515699077      188.827 
1430.8180856068 224.96470588235 
1445.1262664628      276.205 
1459.5775291275      320.133 
1474.1733044187     362.6635 
1488.9150374629      496.453 
1503.8041878376 544.37113636364 
1518.8422297159      596.986 
1534.0306520131      1447.35 
1549.3709585332      1964.49 
1564.8646681186      2372.42 
1580.5133147997      3926.89 
1596.3184479477      4275.04 
1612.2816324272     4378.755 
1628.4044487515      5273.23 
1644.688493239      5097.37 
1661.1353781714 6447.1140909091 
1677.7467319531      13876.5 
1694.5241992726      21733.6 
1711.4694412654     51190.75 
1728.584135678     78115.85 
1745.8699770348       119907 
1763.3286768051     103936.6 
1780.9619635732     160867.5 
1798.7715832089       129417 
1816.759299041       129173 
1834.9268920314     143222.5 
1853.2761609517       227853 
1871.8089225613       251849 
1890.5270117869       310026 
1909.4322819047     257431.5 
1928.5266047238       235618 
1947.811870771 439573.36363636 
1967.2899894787 430285.47058824 
1986.9628893735 511472.80952381 
2006.8325182673       441296 
2026.9008434499     635393.5 
2047.1698518844     526882.5 
2067.6415504033    881179.35 
2088.3179659073      1438920 
2109.2011455664      1652910 
2130.293157022      1482385 
2151.5960885923      1689390 
2173.1120494782      1745775 
2194.843169973 1709456.6666667 
2216.7916016727      1624690 
2238.9595176894      1460010 
2261.3491128663      1320940 
2283.962603995 1748573.3333333 
2306.8022300349      1411190 
2329.8702523353     479783.5 
2353.1689548586 612161.33333333 
2376.7006444072     331468.5 
2400.4676508513       506630 
2424.4723273598 1636286.6666667 
2448.7170506334      1794650 
2473.2042211397 1369886.6666667 
2497.9362633511 1602131.7391304 
2522.9156259846 994065.62962963 
2548.1447822445      1634955 
2573.6262300669 1283058.6666667 
2599.3624923676 821661.66666667 
2625.3561172913      2957045 
2651.6096784642 3587766.6666667 
2678.1257752488      3240485 
2704.9070330013 2842103.3333333 
2731.9561033313 1643781.6666667 
2759.2756643647 1876376.6666667 
2786.8684210083       506648 
2814.7371052184      3044530 
2842.8844762706      3480020 
2871.3133210333      4466800 
2900.0264542436      5946740 
2929.026718786      5166550 
2958.3169859739      6124460 
2987.9001558336      6376330 
3017.779157392      6647120 
3047.9569489659      6729365 
3078.4365184556      7471790 
3109.2208836401      7088220 
3140.3130924765      7265065 
3171.7162234013      6396880 
3203.4333856353      6585885 
3235.4677194916      7301720 
3267.8223966866      7951665 
3300.5006206534      8091485 
3333.50562686      7852490 
3366.8406831286      7623255 
3400.5090899598      8141045 
3434.5141808594      8510420 
3468.859322668      8305615 
3503.5479158947      8670685 
3538.5833950537      8936590 
3573.9692290042      8350960 
3609.7089212942      8619896 
3645.8060105072 9324273.3333333 
3682.2640706123     10087490 
3719.0867113184     12822200 
3756.2775784316     16684400 
3793.8403542159     18185600 
3831.778757758     21534200 
3870.0965453356     16758300 
3908.797510789     14903510 
3947.8854858969     12779080 
3987.3643407558     22908000 
4027.2379841634     23639950 
4067.510364005     23265700 
4108.1854676451     22224200 
4149.2673223215 25229166.666667 
4190.7599955447     24452450 
4232.6675955002     24380150 
4274.9942714552     22489850 
4317.7442141697     20721200 
4360.9216563114     24700850 
4404.5308728746     23681400 
4448.5761816033 24212033.333333 
4493.0619434193     25086000 
4537.9925628535     24828400 
4583.3724884821     24357900 
4629.2062133669 24473766.666667 
4675.4982755006     23204450 
4722.2532582556     24226000 
4769.4757908381     23813300 
4817.1705487465     21892900 
4865.342254234 20435866.666667 
4913.9956767763     22316500 
4963.1356335441 21321866.666667 
5012.7669898795     21066550 
5062.8946597783 21557966.666667 
5113.5236063761     20318550 
5164.6588424398 19756666.666667 
5216.3054308642     20017750 
5268.4684851729 19144633.333333 
5321.1531700246 19271633.333333 
5374.3647017249     19001000 
5428.1083487421     19251100 
5482.3894322295     18722100 
5537.2133265518     18476500 
5592.5854598173     18497650 
5648.5113144155     17906700 
5704.9964275597     18039200 
5762.0463918353     17691600 
5819.6668557536     17564600 
5877.8635243112     16983900 
5936.6421595543     16824400 
5996.0085811498 16313433.333333 
6055.9686669613 16038566.666667 
6116.5283536309 15097833.333333 
6177.6936371672     15371700 
6239.4705735389 14904033.333333 
6301.8652792743 14559833.333333 
6364.883932067     14346100 
6428.5327713877     13987775 
6492.8180991016 13434966.666667 
6557.7462800926 12362933.333333 
6623.3237428935 13333266.666667 
6689.5569803225     13046825 
6756.4525501257 12791433.333333 
6824.0170756269     12491400 
6892.2572463832 12225633.333333 
6961.179818847     11861675 
7030.7916170355 11664833.333333 
7101.0995332059     11234550 
7172.1105285379     10951900 
7243.8316338233     10753600 
7316.2699501615 10625933.333333 
7389.4326496631     10188550 
7463.3269761598     10056075 
7537.9602459214    9912847.5 
7613.3398483806 9641373.3333333 
7689.4732468644    9421502.5 
7766.367979333    9217787.5 
7844.0316591264      8944675 
7922.4719757176    8729072.5 
8001.6966954748    8558797.5 
8081.7136624296      8418735 
8162.5307990539      8080200 
8244.1561070444    7980442.5 
8326.5976681148      7760885 
8409.863644796      7481088 
8493.9622812439    6830807.5 
8578.9019040564      7262955 
8664.6909230969      6793336 
8751.3378323279      7309355 
8838.8512106512      6822130 
8927.2397227577      6841330 
9016.5121199853      6680970 
9106.6772411851      6751476 
9197.744013597    6072662.5 
9289.721453733      6485886 
9382.6186682703      6186584 
9476.444854953      5818660 
9571.2093035025      5877685 
9666.9213965375      5741740 
9763.5906105029      5660010 
9861.226516608      5469514 
9959.838781774      5280450 
10059.437169592      5024420 
10160.031541288      5080670 
10261.631856701      4977050 
10364.248175268      4836880 
10467.89065702      4631120 
10572.56956359      4505630 
10678.295259226      4353485 
10785.078211819      4222530 
10892.928993937      3914945 
11001.858283876      4091255 
11111.876866715      3971245 
11222.995635382      3804200 
11335.225591736      3681425 
11448.577847653      3671960 
11563.06362613 3487456.6666667 
11678.694262391      3408265 
11795.481205015      3294790 
11913.436017065 3252656.6666667 
12032.570377236      3141955 
12152.896081008      3091970 
12274.425041818      3000560 
12397.169292236      2923445 
12521.140985159 2817623.3333333 
12646.35239501      2756770 
12772.81591896      2564120 
12900.54407815      2582630 
13029.549518932      2520685 
13159.845014121      2441110 
13291.443464262      2382745 
13424.357898905 2317453.3333333 
13558.601477894      2228710 
13694.187492673      2147630 
13831.129367599      2106985 
13969.440661275 2049253.3333333 
14109.135067888 1978826.6666667 
14250.226418567 1917323.3333333 
14392.728682753 1825606.6666667 
14536.65596958      1795681 
14682.022529276      1725110 
14828.842754569      1683200 
14977.131182115 1623843.3333333 
15126.902493936      1585410 
15278.171518875 1525413.3333333 
15430.953234064 1476663.3333333 
15585.262766404 1434323.3333333 
15741.115394068 1371776.6666667 
15898.526548009 1372911.4285714 
16057.511813489      1276900 
16218.086931624      1303665 
16380.26780094      1195010 
16544.07047895      1238320 
16709.511183739      1137975 
16876.606295577      1156090 
17045.372358532      1113230 
17215.826082118    1018828.5 
17387.984342939      1011475 
17561.864186368       987882 
17737.482828232       960243 
17914.857656514       924434 
18094.006233079       852319 
18274.94629541       854464 
18457.695758364       826273 
18642.272715948       772655 
18828.695443107     763322.5 
19016.982397539     748743.5 
19207.152221514       716441 
19399.223743729       666164 
19593.215981166       665959 
19789.148140978       643870 
19987.039622388     623767.5 
20186.910018612       597383 
20388.779118798       580464 
20592.666909986       557295 
20798.593579086     537983.5 
21006.579514877     519460.5 
21216.645310025     501122.5 
21428.811763126     485909.5 
21643.099880757 453064.33333333 
21859.530879564       446064 
22078.12618836     431506.5 
22298.907450244       418323 
22521.896524746       401990 
22747.115489993       387369 
22974.586644893       372991 
23204.332511342     361639.5 
23436.375836456       348034 
23670.73959482     333159.5 
23907.446990769     323351.5 
24146.521460676       310450 
24387.986675283       298442 
24631.866542036       287627 
24878.185207456       275941 
25126.967059531 266785.66666667 
25378.236730126     258192.5 
25632.019097427       246253 
25888.339288402     240834.5 
26147.222681286 224258.66666667 
26408.694908098       222273 
26672.781857179       210145 
26939.509675751 209115.66666667 
27208.904772509 200668.33333333 
27480.993820234 188133.33333333 
27755.803758436     186304.5 
28033.361796021 180199.33333333 
28313.695413981 173030.66666667 
28596.832368121       162456 
28882.800691802       159773 
29171.62869872       153631 
29463.344985707 148078.33333333 
29757.978435564 142337.33333333 
30055.55821992       135021 
30356.113802119 131030.66666667 
30659.67494014 126980.33333333 
30966.271689541       122168 
31275.934406437 118012.33333333 
31588.693750501 114002.33333333 
31904.580688006       110176 
32223.626494886     105630.5 
32545.862759835       101831 
32871.321387434      96227.5 
33200.034601308      93549.2 
33532.034947321      90230.9 
33867.355296794     87229.85 
34206.028849762     83820.75 
34548.08913826        81066 
34893.570029642     78579.35 
35242.505729939     75187.05 
35594.930787238     71953.65 
35950.880095111      69042.2 
36310.388896062      66591.4 
36673.492785022     64432.75 
37040.227712872      61507.8 
37410.629990001      58558.5 
37784.736289901     57000.85 
38162.5836528     55036.05 
38544.209489328      52821.9 
38929.651584221      50608.4 
39318.948100064      48969.3 
39712.137581064     46737.05 
40109.258956875      44494.3 
40510.351546444     43607.95 
40915.455061908      42172.4 
41324.609612527      40090.5 
41737.855708653      38995.5 
42155.234265739      37761.4 
42576.786608396     36418.05 
43002.55447448      35049.5 
43432.580019225      33374.4 
43866.905819417      32202.7 
44305.574877612     30864.35 
44748.630626388     29837.95 
45196.116932652      28822.8 
45648.078101978 27628.066666667 
46104.558882998      26151.7 
46565.604471828     25315.05 
47031.260516546 24659.433333333 
47501.573121712      23681.9 
47976.588852929     22936.15 
48456.354741458      22035.5 
48940.918288873     21165.05 
49430.327471761 20360.366666667 
49924.630746479        19579 
50423.877053944      18840.2 
50928.115824483     17904.05 
51437.396982728 17462.333333333 
51951.770952555     16830.55 
52471.288662081 16215.366666667 
52996.001548702 15541.533333333 
53525.961564189     14922.75 
54061.221179831 14453.433333333 
54601.833391629 13841.666666667 
55147.851725545      13321.2 
55699.330242801 12900.366666667 
56256.323545229      12394.9 
56818.886780681 11848.033333333 
57387.075648488 11421.166666667 
57960.946404973 10976.666666667 
58540.555869022 10450.466666667 
59125.961427713 10056.043333333 
59717.22104199 9746.1666666667 
60314.39325241       9375.3 
60917.537184934 9018.4266666667 
61526.712556783 8688.7666666667 
62141.979682351 8356.1866666667 
62763.399479174 7999.2433333333 
63391.033473966 7766.2433333333 
64024.943808706 7429.3942857143 
64665.193246793      7168.94 
65311.845179261     6924.815 
65964.963631053     6602.735 
66624.613267364      6373.29 
67290.859400038      6119.48 
67963.767994038      5876.13 
68643.405673978      5674.77 
69329.839730718     5484.715 
70023.138128025      5245.56 
70723.369509305      5020.22 
71430.603204399      4856.79 
72144.909236443      4694.21 
72866.358328807      4503.71 
73595.021912095      4314.54 
74330.972131216     4064.305 
75074.281852528      3966.15 
75825.024671053      3847.27 
76583.274917764      3730.15 
77349.107666942      3576.43 
78122.598743611     3441.585 
78903.824731047      3306.74 
79692.862978358     3177.035 
80489.791608141     3055.435 
81294.689524223      2930.23 
82107.636419465     2829.075 
82928.712783659     2721.415 
83757.999911496      2620.07 
84595.579910611      2503.29 
85441.535709717       2389.9 
86295.951066814     2296.605 
87158.910577482      2210.43 
88030.499683257     2143.145 
88910.80468009       2069.1 
89799.912726891 1979.9733333333 
90697.91185416     1895.075 
91604.890972701     1832.345 
92520.939882428 1755.7666666667 
93446.149281253     1675.505 
94380.610774065     1627.355 
95324.416881806      1561.11 
96277.661050624     1499.125 
97240.43766113 1438.5466666667 
98212.842037741      1381.96 
99194.970458119     1338.835 
100186.9201627      1307.33 
199060.83304441      83.8169 
399467.9878358      5.21324 
594753.39981818      1.02055 
793700.71765891     0.320316 
997811.18987739     0.130296 
1193529.3359837    0.0624615 
1399507.0114645    0.0335405 
