#  WAVELENGTH	        FLUX	
#  (ANGSTROM)	(ERG/CM2/S/A)	
############	############	
498.3320276611   1.5791E-24 
503.31534793771  4.97332E-24 
508.34850141708  1.29441E-23 
518.56630629557  3.84169E-23 
528.98948905211   1.4341E-22 
539.62217778206  5.00665E-22 
545.01839955988  1.68638E-21 
555.97326939103  5.39207E-21 
567.14833210579  1.65059E-20 
578.54801358112  4.79503E-20 
584.33349371693  1.36937E-19 
596.07859694064  3.72576E-19 
608.05977673914  9.80288E-19 
614.14037450653   2.4903E-18 
626.48459603412  6.13031E-18 
639.0769364144  1.46443E-17 
645.46770577855  3.39977E-17 
651.92238283633  6.53643E-17 
658.44160666469  1.13873E-16 
671.67628295866  2.47557E-16 
678.39304578824  5.25644E-16 
692.02874600859  1.08817E-15 
698.94903346867  2.18462E-15 
712.99790904139  4.66606E-15 
720.12788813181  9.04021E-15 
734.60245868325  1.61153E-14 
741.94848327009  3.00692E-14 
749.36796810279  5.51198E-14 
764.43026426165  9.95988E-14 
772.07456690427  1.76352E-13 
779.79531257331  3.08444E-13 
787.59326569905  5.23063E-13 
803.4238903396  8.89643E-13 
811.45812924299  1.49597E-12 
819.57271053542  2.46493E-12 
827.76843764078  4.00832E-12 
844.40658323736  6.43373E-12 
852.85064906973   1.0208E-11 
861.37915556043  1.59896E-11 
869.99294711603  2.46491E-11 
878.69287658719    3.793E-11 
887.47980535306  5.75236E-11 
896.3546034066  8.62314E-11 
914.37133093507   1.05168E-7 
923.51504424442   3.81606E-7 
932.75019468686    5.7943E-7 
942.07769663373   8.71602E-7 
951.49847360007   1.34425E-6 
961.01345833607   1.98579E-6 
970.62359291943   2.90791E-6 
980.32982884862   4.22539E-6 
990.13312713711   6.08878E-6 
1000.0344584085   8.85332E-6 
1010.0348029926   1.25632E-5 
1020.1351510225   1.68298E-5 
1030.3365025327    2.4763E-5 
1040.639867558   3.44042E-5 
1051.0462662336   4.74778E-5 
1061.556728896   6.40315E-5 
1072.1722961849   8.72597E-5 
1082.8940191468  0.000120108 
1093.7229593382  0.000159034 
1104.6601889316  0.000862855 
1115.7067908209   0.00219027 
1126.8638587291    0.0033119 
1138.1324973164    0.0046359 
1149.5138222896   0.00540856 
1161.0089605125   0.00826117 
1172.6190501176    0.0105071 
1184.3452406188  0.009177145 
1196.188693025   0.00854298 
1208.1505799552   0.00332065 
1220.2320857548    0.0117458 
1232.4344066123    0.0263722 
1244.7587506785    0.0679766 
1257.2063381852     0.076802 
1269.7784015671     0.112005 
1282.4761855828    0.1547205 
1295.3009474386     0.153221 
1308.253956913     0.224832 
1321.3364964821     0.239348 
1334.5498614469     0.305097 
1347.8953600614     0.384811 
1361.374313662      0.40847 
1374.9880567986     0.488509 
1388.7379373666     0.591263 
1402.6253167403    0.7752935 
1416.6515699077     0.930478 
1430.8180856068 1.2471817647059 
1445.1262664628 1.4624546153846 
1459.5775291275       1.9412 
1474.1733044187     2.131165 
1488.9150374629      3.15034 
1503.8041878376      3.49868 
1518.8422297159      4.40728 
1534.0306520131     14.78095 
1549.3709585332      25.2101 
1564.8646681186      33.6746 
1580.5133147997     60.53575 
1596.3184479477      69.8933 
1612.2816324272      81.5179 
1628.4044487515      97.2383 
1644.688493239     105.1925 
1661.1353781714 154.92716818182 
1677.7467319531      379.115 
1694.5241992726     711.0135 
1711.4694412654     931.7005 
1728.584135678      1457.06 
1745.8699770348      2324.82 
1763.3286768051     2337.175 
1780.9619635732     3397.755 
1798.7715832089     3414.335 
1816.759299041      3965.68 
1834.9268920314      4512.78 
1853.2761609517      6116.53 
1871.8089225613     7660.675 
1890.5270117869     9829.175 
1909.4322819047      10759.5 
1928.5266047238     11298.33 
1947.811870771 18216.145454545 
1967.2899894787 20258.411764706 
1986.9628893735 23827.942857143 
2006.8325182673     23327.85 
2026.9008434499      31885.1 
2047.1698518844      31269.1 
2067.6415504033    45328.855 
2088.3179659073    100750.65 
2109.2011455664       115961 
2130.293157022     114545.6 
2151.5960885923     135856.5 
2173.1120494782     149965.5 
2194.843169973 151888.33333333 
2216.7916016727       167056 
2238.9595176894       152763 
2261.3491128663       133844 
2283.962603995 197447.33333333 
2306.8022300349       157039 
2329.8702523353     61364.95 
2353.1689548586 80554.366666667 
2376.7006444072     48257.75 
2400.4676508513     71896.25 
2424.4723273598       238379 
2448.7170506334       274235 
2473.2042211397 188000.33333333 
2497.9362633511 217146.7826087 
2522.9156259846 169083.22222222 
2548.1447822445     339801.5 
2573.6262300669 226516.66666667 
2599.3624923676 139721.33333333 
2625.3561172913       648968 
2651.6096784642 915112.33333333 
2678.1257752488       832252 
2704.9070330013 645924.66666667 
2731.9561033313 332666.33333333 
2759.2756643647 376569.33333333 
2786.8684210083     98489.75 
2814.7371052184 624867.66666667 
2842.8844762706       746971 
2871.3133210333      1319650 
2900.0264542436      1961790 
2929.026718786      1681250 
2958.3169859739      2074790 
2987.9001558336      2167890 
3017.779157392      2359950 
3047.9569489659      2379035 
3078.4365184556      2699350 
3109.2208836401      2647615 
3140.3130924765      2676465 
3171.7162234013      2364390 
3203.4333856353      2419895 
3235.4677194916      2882910 
3267.8223966866      3340305 
3300.5006206534      3304715 
3333.50562686      3131150 
3366.8406831286      2973920 
3400.5090899598      3417230 
3434.5141808594      3769980 
3468.859322668      3699530 
3503.5479158947      3913880 
3538.5833950537      3926095 
3573.9692290042      3579010 
3609.7089212942      3921324 
3645.8060105072 4421286.6666667 
3682.2640706123      4903065 
3719.0867113184      5589255 
3756.2775784316      6727495 
3793.8403542159      6446090 
3831.778757758      6311085 
3870.0965453356      6601700 
3908.797510789      4591370 
3947.8854858969      3517505 
3987.3643407558      8691360 
4027.2379841634      9532290 
4067.510364005      9900430 
4108.1854676451     10115345 
4149.2673223215 10542566.666667 
4190.7599955447     10464050 
4232.6675955002     10531600 
4274.9942714552      8946960 
4317.7442141697     10286005 
4360.9216563114     11274750 
4404.5308728746     11080750 
4448.5761816033 11688933.333333 
4493.0619434193     12559800 
4537.9925628535     12420050 
4583.3724884821     12333800 
4629.2062133669 12477933.333333 
4675.4982755006     12012350 
4722.2532582556     12699250 
4769.4757908381 12735766.666667 
4817.1705487465     12192500 
4865.342254234 11460043.333333 
4913.9956767763     12231450 
4963.1356335441     11543000 
5012.7669898795     11558400 
5062.8946597783 11899433.333333 
5113.5236063761     11126900 
5164.6588424398 10909233.333333 
5216.3054308642     11236850 
5268.4684851729 10874133.333333 
5321.1531700246 11104766.666667 
5374.3647017249     11006200 
5428.1083487421     11284700 
5482.3894322295 10950166.666667 
5537.2133265518 10961066.666667 
5592.5854598173     11086500 
5648.5113144155 10744966.666667 
5704.9964275597     10959500 
5762.0463918353 10815666.666667 
5819.6668557536 10911566.666667 
5877.8635243112     10531900 
5936.6421595543     10568000 
5996.0085811498     10319800 
6055.9686669613 10127153.333333 
6116.5283536309 9485876.6666667 
6177.6936371672 9789163.3333333 
6239.4705735389 9509656.6666667 
6301.8652792743 9329583.3333333 
6364.883932067      9271360 
6428.5327713877    9126687.5 
6492.8180991016 8988836.6666667 
6557.7462800926 8439106.6666667 
6623.3237428935 8824843.3333333 
6689.5569803225      8689640 
6756.4525501257 8523986.6666667 
6824.0170756269    8379672.5 
6892.2572463832 8232133.3333333 
6961.179818847    8001347.5 
7030.7916170355 7905146.6666667 
7101.0995332059      7657185 
7172.1105285379      7434490 
7243.8316338233    7366957.5 
7316.2699501615      7323170 
7389.4326496631    7025627.5 
7463.3269761598    7015412.5 
7537.9602459214      6940520 
7613.3398483806 6783076.6666667 
7689.4732468644      6642225 
7766.367979333      6559960 
7844.0316591264    6379732.5 
7922.4719757176      6229365 
8001.6966954748    6125067.5 
8081.7136624296    6038732.5 
8162.5307990539      5818740 
8244.1561070444    5762542.5 
8326.5976681148      5610635 
8409.863644796      5422402 
8493.9622812439      4792655 
8578.9019040564      5256045 
8664.6909230969      4896822 
8751.3378323279    5221747.5 
8838.8512106512      5016315 
8927.2397227577      4938020 
9016.5121199853      4851120 
9106.6772411851      4828638 
9197.744013597    4497192.5 
9289.721453733      4650322 
9382.6186682703      4450526 
9476.444854953      4326826 
9571.2093035025      4284350 
9666.9213965375      4186206 
9763.5906105029      4138354 
9861.226516608      4036854 
9959.838781774      3955736 
10059.437169592      3808680 
10160.031541288      3779260 
10261.631856701      3719045 
10364.248175268      3627850 
10467.89065702      3496810 
10572.56956359 3411306.6666667 
10678.295259226      3304705 
10785.078211819      3207720 
10892.928993937      3063265 
11001.858283876      3103750 
11111.876866715      3025985 
11222.995635382      2922880 
11335.225591736      2834800 
11448.577847653      2845520 
11563.06362613 2714076.6666667 
11678.694262391      2670815 
11795.481205015      2585645 
11913.436017065 2561446.6666667 
12032.570377236      2483280 
12152.896081008      2460815 
12274.425041818      2396000 
12397.169292236      2341040 
12521.140985159 2266793.3333333 
12646.35239501      2222855 
12772.81591896 2115543.3333333 
12900.54407815 2097306.6666667 
13029.549518932      2053990 
13159.845014121 1994493.3333333 
13291.443464262      1954135 
13424.357898905 1911633.3333333 
13558.601477894 1840106.6666667 
13694.187492673      1785630 
13831.129367599      1757825 
13969.440661275      1712720 
14109.135067888 1654536.6666667 
14250.226418567 1609083.3333333 
14392.728682753 1538586.6666667 
14536.65596958 1518559.6666667 
14682.022529276      1460860 
14828.842754569 1433856.6666667 
14977.131182115      1385440 
15126.902493936 1360133.3333333 
15278.171518875 1315686.6666667 
15430.953234064 1275516.6666667 
15585.262766404 1246323.3333333 
15741.115394068      1186350 
15898.526548009 1189251.4285714 
16057.511813489      1122510 
16218.086931624      1134245 
16380.26780094      1056550 
16544.07047895      1075885 
16709.511183739    1004091.5 
16876.606295577      1010050 
17045.372358532       969754 
17215.826082118     898537.5 
17387.984342939     885044.5 
17561.864186368       863429 
17737.482828232       838329 
17914.857656514     808429.5 
18094.006233079       756585 
18274.94629541       745933 
18457.695758364       723480 
18642.272715948       682305 
18828.695443107       666497 
19016.982397539       655435 
19207.152221514       627668 
19399.223743729     591487.5 
19593.215981166     583060.5 
19789.148140978     564380.5 
19987.039622388     548608.5 
20186.910018612       523532 
20388.779118798       510653 
20592.666909986       490020 
20798.593579086       472638 
21006.579514877     457859.5 
21216.645310025       441918 
21428.811763126     429178.5 
21643.099880757       402946 
21859.530879564       393473 
22078.12618836       380948 
22298.907450244     369031.5 
22521.896524746     354537.5 
22747.115489993 341131.66666667 
22974.586644893     328560.5 
23204.332511342       316413 
23436.375836456 305050.66666667 
23670.73959482     291414.5 
23907.446990769       283995 
24146.521460676 271757.66666667 
24387.986675283       260987 
24631.866542036 252493.66666667 
24878.185207456       242851 
25126.967059531 234862.33333333 
25378.236730126     226673.5 
25632.019097427 217055.66666667 
25888.339288402       212192 
26147.222681286       200161 
26408.694908098 195407.66666667 
26672.781857179     187482.5 
26939.509675751 184175.66666667 
27208.904772509 177039.66666667 
27480.993820234       167466 
27755.803758436     164403.5 
28033.361796021 159124.33333333 
28313.695413981 152919.33333333 
28596.832368121 145022.66666667 
28882.800691802 141354.33333333 
29171.62869872 135772.33333333 
29463.344985707 131005.33333333 
29757.978435564 125912.33333333 
30055.55821992 120219.33333333 
30356.113802119       116459 
30659.67494014       112414 
30966.271689541 108204.66666667 
31275.934406437 104582.66666667 
31588.693750501 100964.03333333 
31904.580688006      97647.6 
32223.626494886      93573.3 
32545.862759835        90218 
32871.321387434     86007.75 
33200.034601308     82949.55 
33532.034947321      80027.2 
33867.355296794      77312.6 
34206.028849762     74341.05 
34548.08913826      71892.6 
34893.570029642      69701.9 
35242.505729939     66675.65 
35594.930787238     63818.65 
35950.880095111        61333 
36310.388896062        59078 
36673.492785022      57131.3 
37040.227712872      54599.7 
37410.629990001      52064.2 
37784.736289901     50554.75 
38162.5836528     48863.65 
38544.209489328      46838.2 
38929.651584221     45046.35 
39318.948100064     43349.95 
39712.137581064     41433.75 
40109.258956875      39805.7 
40510.351546444     38662.75 
40915.455061908     37401.65 
41324.609612527     35767.95 
41737.855708653     34591.85 
42155.234265739     33493.75 
42576.786608396      32083.8 
43002.55447448        30540 
43432.580019225        28918 
43866.905819417 27629.833333333 
44305.574877612     26281.05 
44748.630626388     25500.35 
45196.116932652     24392.65 
45648.078101978 23449.766666667 
46104.558882998      22423.4 
46565.604471828      21790.6 
47031.260516546 21086.266666667 
47501.573121712     20263.75 
47976.588852929     19650.45 
48456.354741458      18920.3 
48940.918288873      18219.6 
49430.327471761 17546.133333333 
49924.630746479     16897.55 
50423.877053944      16272.5 
50928.115824483        15617 
51437.396982728 15149.766666667 
51951.770952555      14568.6 
52471.288662081 14087.466666667 
52996.001548702      13501.4 
53525.961564189      13021.5 
54061.221179831 12581.633333333 
54601.833391629 12071.666666667 
55147.851725545     11663.55 
55699.330242801 11290.266666667 
56256.323545229 10860.266666667 
56818.886780681        10419 
57387.075648488     10037.32 
57960.946404973 9656.0666666667 
58540.555869022 9250.4966666667 
59125.961427713 8904.0166666667 
59717.22104199      8607.71 
60314.39325241 8280.7066666667 
60917.537184934      7973.19 
61526.712556783 7694.8933333333 
62141.979682351 7401.1766666667 
62763.399479174      7121.84 
63391.033473966      6888.68 
64024.943808706 6592.9485714286 
64665.193246793       6361.9 
65311.845179261       6150.9 
65964.963631053     5867.565 
66624.613267364      5665.06 
67290.859400038      5459.25 
67963.767994038      5226.07 
68643.405673978      5048.56 
69329.839730718      4881.34 
70023.138128025     4667.195 
70723.369509305     4469.305 
71430.603204399      4323.04 
72144.909236443     4181.415 
72866.358328807     4009.425 
73595.021912095     3840.775 
74330.972131216      3654.26 
75074.281852528     3532.155 
75825.024671053      3425.88 
76583.274917764     3321.555 
77349.107666942     3188.925 
78122.598743611     3065.185 
78903.824731047     2945.015 
79692.862978358      2829.55 
80489.791608141      2721.12 
81294.689524223       2614.3 
82107.636419465       2520.1 
82928.712783659      2424.33 
83757.999911496     2334.765 
84595.579910611 2230.3166666667 
85441.535709717     2129.425 
86295.951066814      2051.89 
87158.910577482     1976.985 
88030.499683257      1909.57 
88910.80468009     1843.505 
89799.912726891      1764.25 
90697.91185416      1688.25 
91604.890972701     1633.135 
92520.939882428 1565.1466666667 
93446.149281253      1498.43 
94380.610774065     1450.745 
95324.416881806       1391.8 
96277.661050624      1336.49 
97240.43766113 1282.1933333333 
98212.842037741       1232.8 
99194.970458119      1193.57 
100186.9201627      1165.72 
199060.83304441      74.9466 
399467.9878358      4.67005 
594753.39981818      0.91446 
793700.71765891     0.286921 
997811.18987739     0.116655 
1193529.3359837    0.0558948 
1399507.0114645    0.0299999 
