#  WAVELENGTH	        FLUX	
#  (ANGSTROM)	(ERG/CM2/S/A)	
############	############	
578.54801358112  1.04589E-24 
584.33349371693  3.62803E-24 
596.07859694064  1.19183E-23 
608.05977673914  3.75991E-23 
614.14037450653  1.13921E-22 
626.48459603412  3.32575E-22 
639.0769364144  9.37412E-22 
645.46770577855   2.5541E-21 
651.92238283633  5.56286E-21 
658.44160666469  1.07969E-20 
671.67628295866  2.72139E-20 
678.39304578824  6.66927E-20 
692.02874600859  1.58819E-19 
698.94903346867  3.66478E-19 
712.99790904139   9.0248E-19 
720.12788813181  1.98745E-18 
734.60245868325   3.9658E-18 
741.94848327009  8.36235E-18 
749.36796810279    1.727E-17 
764.43026426165  3.49921E-17 
772.07456690427  6.93717E-17 
779.79531257331  1.35256E-16 
787.59326569905  2.55976E-16 
803.4238903396  4.83424E-16 
811.45812924299  8.97609E-16 
819.57271053542  1.63318E-15 
827.76843764078  2.92512E-15 
844.40658323736  5.16054E-15 
852.85064906973  8.97576E-15 
861.37915556043  1.53879E-14 
869.99294711603  2.59545E-14 
878.69287658719  4.34678E-14 
887.47980535306  7.17035E-14 
896.3546034066  1.16778E-13 
914.37133093507  1.32068E-10 
923.51504424442  4.92607E-10 
932.75019468686  7.19007E-10 
942.07769663373   1.20824E-9 
951.49847360007   1.89632E-9 
961.01345833607   3.03978E-9 
970.62359291943   4.42545E-9 
980.32982884862   6.65725E-9 
990.13312713711   9.73957E-9 
1000.0344584085   1.54884E-8 
1010.0348029926   2.30311E-8 
1020.1351510225   3.22547E-8 
1030.3365025327   4.96645E-8 
1040.639867558   7.27707E-8 
1051.0462662336   1.01339E-7 
1061.556728896   1.45102E-7 
1072.1722961849   2.08981E-7 
1082.8940191468   2.91649E-7 
1093.7229593382   3.90672E-7 
1104.6601889316   6.45023E-7 
1115.7067908209   1.06415E-6 
1126.8638587291   1.49903E-6 
1138.1324973164   2.05264E-6 
1149.5138222896   2.80289E-6 
1161.0089605125   3.80997E-6 
1172.6190501176   5.11902E-6 
1184.3452406188   7.65784E-6 
1196.188693025   1.09997E-5 
1208.1505799552   1.06063E-5 
1220.2320857548   1.89758E-5 
1232.4344066123   2.55274E-5 
1244.7587506785  3.780395E-5 
1257.2063381852   5.45358E-5 
1269.7784015671    7.0191E-5 
1282.4761855828  9.851715E-5 
1295.3009474386  0.000136689 
1308.253956913  0.000179443 
1321.3364964821  0.000223962 
1334.5498614469  0.000312371 
1347.8953600614  0.000447596 
1361.374313662  0.000546405 
1374.9880567986 0.0007121165 
1388.7379373666  0.000946169 
1402.6253167403   0.00133134 
1416.6515699077   0.00174612 
1430.8180856068 0.0023286170588235 
1445.1262664628 0.0028675169230769 
1459.5775291275   0.00383746 
1474.1733044187   0.00476153 
1488.9150374629   0.00698418 
1503.8041878376 0.0085293554545455 
1518.8422297159    0.0118161 
1534.0306520131   0.03428185 
1549.3709585332    0.0662293 
1564.8646681186    0.1263028 
1580.5133147997     0.252165 
1596.3184479477     0.293879 
1612.2816324272    0.3472405 
1628.4044487515     0.511734 
1644.688493239     0.661345 
1661.1353781714 1.1554822727273 
1677.7467319531       3.3083 
1694.5241992726      6.50458 
1711.4694412654     10.33198 
1728.584135678      18.6955 
1745.8699770348      28.3536 
1763.3286768051      27.8148 
1780.9619635732       44.393 
1798.7715832089      55.2729 
1816.759299041      73.3877 
1834.9268920314       67.346 
1853.2761609517     90.23305 
1871.8089225613      121.149 
1890.5270117869       170.03 
1909.4322819047      195.274 
1928.5266047238     184.8225 
1947.811870771 335.58963636364 
1967.2899894787 395.35064705882 
1986.9628893735 447.20385714286 
2006.8325182673        447.1 
2026.9008434499      606.699 
2047.1698518844      684.168 
2067.6415504033    848.38295 
2088.3179659073      2135.34 
2109.2011455664      2599.13 
2130.293157022      3102.31 
2151.5960885923     3304.345 
2173.1120494782      3718.45 
2194.843169973      4303.29 
2216.7916016727     5729.165 
2238.9595176894      6442.81 
2261.3491128663      5805.57 
2283.962603995      7658.59 
2306.8022300349      8131.27 
2329.8702523353      7796.12 
2353.1689548586 8644.6666666667 
2376.7006444072     7587.895 
2400.4676508513      9324.85 
2424.4723273598 16591.566666667 
2448.7170506334     18821.55 
2473.2042211397 10091.696666667 
2497.9362633511 12280.319565217 
2522.9156259846 15118.444074074 
2548.1447822445     47772.85 
2573.6262300669      45327.2 
2599.3624923676 39599.166666667 
2625.3561172913     137416.5 
2651.6096784642 200901.33333333 
2678.1257752488     175404.5 
2704.9070330013 131652.26666667 
2731.9561033313 84418.033333333 
2759.2756643647     114326.7 
2786.8684210083     28832.75 
2814.7371052184 156302.66666667 
2842.8844762706 78889.666666667 
2871.3133210333       311626 
2900.0264542436       569450 
2929.026718786       511867 
2958.3169859739       526558 
2987.9001558336       495377 
3017.779157392       601848 
3047.9569489659     664632.5 
3078.4365184556       773773 
3109.2208836401     877252.5 
3140.3130924765     949964.5 
3171.7162234013       844117 
3203.4333856353       820773 
3235.4677194916      1117440 
3267.8223966866      1369110 
3300.5006206534      1248465 
3333.50562686      1184960 
3366.8406831286       962684 
3400.5090899598      1138060 
3434.5141808594      1289250 
3468.859322668      1409325 
3503.5479158947      1414235 
3538.5833950537      1125703 
3573.9692290042      1030880 
3609.7089212942      1543244 
3645.8060105072      1939710 
3682.2640706123      1964130 
3719.0867113184      1386430 
3756.2775784316      1726055 
3793.8403542159    1139549.5 
3831.778757758       908683 
3870.0965453356      1864790 
3908.797510789      1563810 
3947.8854858969      1413790 
3987.3643407558      3076940 
4027.2379841634      3128155 
4067.510364005      3180350 
4108.1854676451      3278140 
4149.2673223215 2879106.6666667 
4190.7599955447      3418130 
4232.6675955002      3518905 
4274.9942714552      2779845 
4317.7442141697      3797275 
4360.9216563114      3927850 
4404.5308728746      4152200 
4448.5761816033 4586573.3333333 
4493.0619434193      5144440 
4537.9925628535      5144470 
4583.3724884821      5179080 
4629.2062133669 5126013.3333333 
4675.4982755006      5032870 
4722.2532582556      5489470 
4769.4757908381 5681986.6666667 
4817.1705487465      5582065 
4865.342254234      5275360 
4913.9956767763      5603690 
4963.1356335441      5200650 
5012.7669898795      5230730 
5062.8946597783 5318416.6666667 
5113.5236063761      4952125 
5164.6588424398      4825050 
5216.3054308642      5342545 
5268.4684851729 5338493.3333333 
5321.1531700246 5436526.6666667 
5374.3647017249      5396280 
5428.1083487421 5613943.3333333 
5482.3894322295 5427733.3333333 
5537.2133265518 5522146.6666667 
5592.5854598173      5627180 
5648.5113144155      5542640 
5704.9964275597 5726486.6666667 
5762.0463918353 5683976.6666667 
5819.6668557536      5851890 
5877.8635243112 5537046.6666667 
5936.6421595543      5720780 
5996.0085811498 5658443.3333333 
6055.9686669613      5543930 
6116.5283536309 5159926.6666667 
6177.6936371672      5390790 
6239.4705735389      5258670 
6301.8652792743      5173010 
6364.883932067      5186630 
6428.5327713877    5155267.5 
6492.8180991016      5155930 
6557.7462800926 5017176.6666667 
6623.3237428935      5052560 
6689.5569803225      5037475 
6756.4525501257 4954516.6666667 
6824.0170756269      4907550 
6892.2572463832 4812036.6666667 
6961.179818847    4659732.5 
7030.7916170355 4640856.6666667 
7101.0995332059    4486177.5 
7172.1105285379 4385143.3333333 
7243.8316338233    4378297.5 
7316.2699501615 4366726.6666667 
7389.4326496631      4245580 
7463.3269761598    4283122.5 
7537.9602459214      4256945 
7613.3398483806 4198726.6666667 
7689.4732468644      4137180 
7766.367979333      4144105 
7844.0316591264    3981942.5 
7922.4719757176    3829557.5 
8001.6966954748    3810467.5 
8081.7136624296    3685582.5 
8162.5307990539      3620510 
8244.1561070444    3616337.5 
8326.5976681148    3511887.5 
8409.863644796      3481994 
8493.9622812439      3190415 
8578.9019040564      3400110 
8664.6909230969      3209686 
8751.3378323279      3316250 
8838.8512106512    3293307.5 
8927.2397227577      3200418 
9016.5121199853      3180305 
9106.6772411851      3031120 
9197.744013597    2870487.5 
9289.721453733      2922562 
9382.6186682703      2786062 
9476.444854953      2792614 
9571.2093035025    2763352.5 
9666.9213965375      2715910 
9763.5906105029      2695512 
9861.226516608      2685980 
9959.838781774      2663760 
10059.437169592      2606335 
10160.031541288      2553860 
10261.631856701      2532200 
10364.248175268      2482330 
10467.89065702      2437035 
10572.56956359 2373173.3333333 
10678.295259226      2307680 
10785.078211819      2228250 
10892.928993937      2107250 
11001.858283876      2049265 
11111.876866715      2053420 
11222.995635382 2021873.3333333 
11335.225591736      1972855 
11448.577847653      1996040 
11563.06362613 1932996.6666667 
11678.694262391      1922545 
11795.481205015      1869125 
11913.436017065 1845653.3333333 
12032.570377236      1802440 
12152.896081008      1806830 
12274.425041818      1766410 
12397.169292236      1732275 
12521.140985159 1698043.3333333 
12646.35239501      1661815 
12772.81591896 1613226.6666667 
12900.54407815      1589050 
13029.549518932      1564090 
13159.845014121 1526226.6666667 
13291.443464262      1504795 
13424.357898905 1486433.3333333 
13558.601477894 1434606.6666667 
13694.187492673      1414060 
13831.129367599      1394025 
13969.440661275 1354936.6666667 
14109.135067888      1284350 
14250.226418567 1260346.6666667 
14392.728682753 1225216.6666667 
14536.65596958 1201578.3333333 
14682.022529276      1163470 
14828.842754569 1157123.3333333 
14977.131182115 1120253.3333333 
15126.902493936 1114423.3333333 
15278.171518875      1096370 
15430.953234064      1061540 
15585.262766404 1046546.6666667 
15741.115394068 987670.66666667 
15898.526548009 988857.85714286 
16057.511813489       958125 
16218.086931624     956387.5 
16380.26780094       910883 
16544.07047895       912534 
16709.511183739     862038.5 
16876.606295577       864544 
17045.372358532     827758.5 
17215.826082118     775846.5 
17387.984342939       761230 
17561.864186368       743683 
17737.482828232       719646 
17914.857656514       693817 
18094.006233079     657573.5 
18274.94629541       636915 
18457.695758364       622384 
18642.272715948       588431 
18828.695443107     570431.5 
19016.982397539     562527.5 
19207.152221514       538565 
19399.223743729     513568.5 
19593.215981166     499205.5 
19789.148140978     483857.5 
19987.039622388     472979.5 
20186.910018612       449176 
20388.779118798     439212.5 
20592.666909986     421449.5 
20798.593579086       405616 
21006.579514877     395745.5 
21216.645310025     382016.5 
21428.811763126     370528.5 
21643.099880757 349639.66666667 
21859.530879564     339528.5 
22078.12618836       329848 
22298.907450244     318274.5 
22521.896524746     307002.5 
22747.115489993 289361.66666667 
22974.586644893       277207 
23204.332511342     256567.5 
23436.375836456 248814.66666667 
23670.73959482     234795.5 
23907.446990769     233627.5 
24146.521460676 219845.33333333 
24387.986675283       209174 
24631.866542036 205525.66666667 
24878.185207456     201179.5 
25126.967059531 192737.66666667 
25378.236730126     186268.5 
25632.019097427 180776.33333333 
25888.339288402     176578.5 
26147.222681286 169460.66666667 
26408.694908098 163389.33333333 
26672.781857179     160609.5 
26939.509675751       155396 
27208.904772509 150180.66666667 
27480.993820234       143959 
27755.803758436     140358.5 
28033.361796021       136152 
28313.695413981       131342 
28596.832368121 125886.33333333 
28882.800691802       121960 
29171.62869872 116999.33333333 
29463.344985707       113174 
29757.978435564       108801 
30055.55821992 104686.33333333 
30356.113802119     101064.6 
30659.67494014 97399.333333333 
30966.271689541 93974.833333333 
31275.934406437 90827.833333333 
31588.693750501 87514.033333333 
31904.580688006     84794.76 
32223.626494886      81083.5 
32545.862759835      78214.7 
32871.321387434      75207.6 
33200.034601308      72066.2 
33532.034947321      69664.3 
33867.355296794        67154 
34206.028849762     64596.25 
34548.08913826      62462.4 
34893.570029642      60555.2 
35242.505729939      57911.8 
35594.930787238      55424.9 
35950.880095111        53364 
36310.388896062      51253.4 
36673.492785022      49566.8 
37040.227712872        47320 
37410.629990001     45245.85 
37784.736289901        43858 
38162.5836528     42485.25 
38544.209489328      40665.8 
38929.651584221     39293.05 
39318.948100064      37552.6 
39712.137581064     35942.15 
40109.258956875     34839.05 
40510.351546444     33581.55 
40915.455061908      32497.5 
41324.609612527      31223.7 
41737.855708653     30053.45 
42155.234265739      29111.9 
42576.786608396     27593.25 
43002.55447448      25838.3 
43432.580019225      24257.2 
43866.905819417 22815.566666667 
44305.574877612        21349 
44748.630626388      20782.5 
45196.116932652      19598.5 
45648.078101978      18851.6 
46104.558882998      18064.1 
46565.604471828     17662.55 
47031.260516546      17040.2 
47501.573121712      16398.4 
47976.588852929      15993.9 
48456.354741458 15429.033333333 
48940.918288873      14832.2 
49430.327471761 14351.766666667 
49924.630746479      13839.1 
50423.877053944 13346.466666667 
50928.115824483      12855.6 
51437.396982728      12506.1 
51951.770952555      12004.1 
52471.288662081 11708.533333333 
52996.001548702 11205.533333333 
53525.961564189     10862.95 
54061.221179831      10513.4 
54601.833391629 10104.303333333 
55147.851725545     9832.205 
55699.330242801      9536.38 
56256.323545229 9178.0833333333 
56818.886780681 8836.8133333333 
57387.075648488 8536.0333333333 
57960.946404973      8218.31 
58540.555869022      7898.32 
59125.961427713      7628.19 
59717.22104199 7371.5266666667 
60314.39325241 7087.5033333333 
60917.537184934 6834.2666666667 
61526.712556783      6624.52 
62141.979682351      6368.19 
62763.399479174 6151.3433333333 
63391.033473966 5949.1633333333 
64024.943808706 5699.4085714286 
64665.193246793      5508.21 
65311.845179261      5332.38 
65964.963631053       5093.4 
66624.613267364      4924.51 
67290.859400038     4754.555 
67963.767994038     4550.295 
68643.405673978      4398.97 
69329.839730718     4256.495 
70023.138128025     4071.555 
70723.369509305       3901.2 
71430.603204399      3774.81 
72144.909236443     3654.395 
72866.358328807      3502.64 
73595.021912095      3355.68 
74330.972131216     3211.785 
75074.281852528      3087.47 
75825.024671053      2994.86 
76583.274917764      2902.32 
77349.107666942      2788.74 
78122.598743611      2678.97 
78903.824731047     2573.865 
79692.862978358     2473.085 
80489.791608141      2378.26 
81294.689524223      2286.73 
82107.636419465       2203.6 
82928.712783659      2120.04 
83757.999911496       2042.7 
84595.579910611      1950.73 
85441.535709717      1862.71 
86295.951066814       1796.9 
87158.910577482      1732.64 
88030.499683257      1669.89 
88910.80468009     1612.465 
89799.912726891      1543.19 
90697.91185416     1476.585 
91604.890972701      1429.03 
92520.939882428 1369.5733333333 
93446.149281253     1313.095 
94380.610774065     1269.605 
95324.416881806       1218.3 
96277.661050624     1169.695 
97240.43766113      1121.93 
98212.842037741     1079.325 
99194.970458119     1044.865 
100186.9201627      1020.88 
199060.83304441      65.6809 
399467.9878358      4.08965 
594753.39981818     0.799945 
793700.71765891     0.250667 
997811.18987739     0.101777 
1193529.3359837    0.0486977 
1399507.0114645     0.026102 
