#  WAVELENGTH	        FLUX	
#  (ANGSTROM)	(ERG/CM2/S/A)	
############	############	
        90.9  1.29704E-10 
    92.72709  4.96216E-10 
95.53681355409   1.74063E-9 
97.457103506527   3.72825E-9 
99.415991287008   8.78428E-9 
101.41425271188   2.47949E-8 
103.45267919139   5.23953E-8 
105.53207804313   1.07955E-7 
107.6532728118   2.43464E-7 
109.81710359532   6.62269E-7 
113.14467165136   2.33914E-6 
117.73879903054   8.16698E-6 
120.10534889105   2.42276E-5 
123.7446610678    6.7596E-5 
126.23192875526  0.000128828 
127.49424804281  0.000183601 
130.05688242847  0.000320115 
131.35745125276  0.000522229 
132.67102576529  0.000763496 
135.33771338317   0.00146906 
139.43858143639   0.00314123 
142.24129692326   0.00686429 
146.55135046134    0.0154324 
150.99200293167    0.0343604 
154.02694219059    0.0774637 
158.69411256591     0.150662 
161.88386422848     0.264676 
165.13772989948     0.529017 
170.14156825316      1.05507 
171.84298393569      1.71303 
175.2970279128      2.89904 
178.82049817385      4.74811 
180.60870315558      5.87674 
186.0813274699      10.8655 
189.82156215205      20.7392 
193.6369755513      30.1858 
197.52907875988      52.4613 
201.49941324296      77.3707 
203.51440737539      111.795 
209.68109743327      203.651 
216.03464436659      362.833 
218.19499081026      524.844 
222.58071012555      710.727 
224.8065172268      1050.11 
229.32512822306       468372 
233.93456330034      1066220 
238.63664802268      1453350 
245.86757709442      2059790 
250.80951539401      3439040 
255.85078665343      5031810 
258.40929451997      6388820 
263.60332133982     15366800 
266.23935455322     23973800 
271.59076557974     29201800 
277.04973996789     27784800 
282.61843974125     57666000 
288.29907038004     77563500 
294.09388169468     83781500 
300.00516871675    191249000 
306.03527260795    855809000 
315.30844740325    538994000 
324.86260866801    908524000 
334.70627057326   1197220000 
344.8482052779   1547160000 
355.29745074603   3721500000 
362.43892950602   9258790000 
373.42119150899  12848400000 
384.7362270329  12898700000 
392.46942519626  26584200000 
404.36164124913  49948100000 
412.48931023824  43133800000 
420.78034537403  43017800000 
429.23803031605  39845100000 
437.8657147254  49648000000 
446.66681559138  50724900000 
455.64481858477  38438500000 
469.4513122327  44530600000 
478.88728360858  55052700000 
488.51291800911  34334000000 
498.3320276611  56388900000 
503.31534793771  40048400000 
508.34850141708  89703000000 
518.56630629557  82949000000 
528.98948905211  73527400000 
539.62217778206  61395700000 
545.01839955988  52985000000 
555.97326939103  76840400000 
567.14833210579  99088600000 
578.54801358112  94626200000 
584.33349371693  94563500000 
596.07859694064  64494100000 
608.05977673914  66461000000 
614.14037450653  93656400000 
626.48459603412  85796700000 
639.0769364144  97346500000 
645.46770577855  88508900000 
651.92238283633  67891000000 
658.44160666469  89517400000 
671.67628295866 100279000000 
678.39304578824  75023400000 
692.02874600859  96205500000 
698.94903346867  69335400000 
712.99790904139  98669500000 
720.12788813181  98236000000 
734.60245868325  98292700000 
741.94848327009  87343300000 
749.36796810279  86208000000 
764.43026426165  75587600000 
772.07456690427  85090100000 
779.79531257331  72750900000 
787.59326569905  83694000000 
803.4238903396  81993800000 
811.45812924299  81383800000 
819.57271053542  83009200000 
827.76843764078  64310000000 
844.40658323736  77585700000 
852.85064906973  72880100000 
861.37915556043  77156100000 
869.99294711603  76647600000 
878.69287658719  75050300000 
887.47980535306  73674000000 
896.3546034066  70652100000 
914.37133093507  56323500000 
923.51504424442  94378000000 
932.75019468686 133076000000 
942.07769663373 148899000000 
951.49847360007 163687000000 
961.01345833607 176094000000 
970.62359291943 114019000000 
980.32982884862 147594000000 
990.13312713711 127811000000 
1000.0344584085 126791000000 
1010.0348029926 134456000000 
1020.1351510225 122289000000 
1030.3365025327 138453000000 
1040.639867558 147770000000 
1051.0462662336 141029000000 
1061.556728896 129455000000 
1072.1722961849 130376000000 
1082.8940191468 118892000000 
1093.7229593382 123869000000 
1104.6601889316 118220500000 
1115.7067908209 106418000000 
1126.8638587291 113271000000 
1138.1324973164 113330000000 
1149.5138222896 103435000000 
1161.0089605125  97600400000 
1172.6190501176  76820900000 
1184.3452406188  88410750000 
1196.188693025  84166100000 
1208.1505799552  71925000000 
1220.2320857548  78977600000 
1232.4344066123  80850400000 
1244.7587506785  78460600000 
1257.2063381852  80300600000 
1269.7784015671  82765500000 
1282.4761855828  81144650000 
1295.3009474386  77459800000 
1308.253956913  79061600000 
1321.3364964821  77312900000 
1334.5498614469  74749800000 
1347.8953600614  71009400000 
1361.374313662  68535300000 
1374.9880567986  64912700000 
1388.7379373666  59381700000 
1402.6253167403  60130400000 
1416.6515699077  56775900000 
1430.8180856068 59199176470.588 
1445.1262664628 55958646153.846 
1459.5775291275  54420100000 
1474.1733044187  54771500000 
1488.9150374629  52884900000 
1503.8041878376 51969222727.273 
1518.8422297159  50066500000 
1534.0306520131  39551300000 
1549.3709585332  35893300000 
1564.8646681186  42398300000 
1580.5133147997  42945450000 
1596.3184479477  40379600000 
1612.2816324272  39228000000 
1628.4044487515  39654100000 
1644.688493239  39016050000 
1661.1353781714 37936290909.091 
1677.7467319531  39202700000 
1694.5241992726  37846100000 
1711.4694412654  34839000000 
1728.584135678  35482950000 
1745.8699770348  34515700000 
1763.3286768051  33284150000 
1780.9619635732  32548500000 
1798.7715832089  31242450000 
1816.759299041  30103400000 
1834.9268920314  29929900000 
1853.2761609517  29599450000 
1871.8089225613  28116200000 
1890.5270117869  27932700000 
1909.4322819047  26544950000 
1928.5266047238  26669650000 
1947.811870771 25099654545.455 
1967.2899894787 25053870588.235 
1986.9628893735 24416290476.19 
2006.8325182673  23918800000 
2026.9008434499  22908000000 
2047.1698518844  16374200000 
2067.6415504033  17265600000 
2088.3179659073  20340200000 
2109.2011455664  20358600000 
2130.293157022  19842900000 
2151.5960885923  18988150000 
2173.1120494782  18705250000 
2194.843169973 18246766666.667 
2216.7916016727  17757100000 
2238.9595176894  16912500000 
2261.3491128663  16755950000 
2283.962603995 15592366666.667 
2306.8022300349  15358750000 
2329.8702523353  14966100000 
2353.1689548586 14079733333.333 
2376.7006444072  13139500000 
2400.4676508513  13165000000 
2424.4723273598 12903833333.333 
2448.7170506334  12417850000 
2473.2042211397  11194730000 
2497.9362633511 11164839130.435 
2522.9156259846 11223029629.63 
2548.1447822445  10893550000 
2573.6262300669  10465400000 
2599.3624923676  10096900000 
2625.3561172913   9814845000 
2651.6096784642 9435096666.6667 
2678.1257752488   9142460000 
2704.9070330013 8915726666.6667 
2731.9561033313 8516243333.3333 
2759.2756643647 8239246666.6667 
2786.8684210083   7908630000 
2814.7371052184   7743070000 
2842.8844762706 7462763333.3333 
2871.3133210333 7173923333.3333 
2900.0264542436   6952160000 
2929.026718786   6745045000 
2958.3169859739   6476360000 
2987.9001558336   6189515000 
3017.779157392   5920390000 
3047.9569489659   5766480000 
3078.4365184556   5601980000 
3109.2208836401   5428580000 
3140.3130924765   5205415000 
3171.7162234013   5043020000 
3203.4333856353   4824515000 
3235.4677194916   4724430000 
3267.8223966866   4530850000 
3300.5006206534   4342660000 
3333.50562686   4156200000 
3366.8406831286   4062470000 
3400.5090899598   3911285000 
3434.5141808594   3762730000 
3468.859322668   3680570000 
3503.5479158947   3536020000 
3538.5833950537   3390820000 
3573.9692290042   3289920000 
3609.7089212942   3157410000 
3645.8060105072   2733240000 
3682.2640706123   2642820000 
3719.0867113184   2633410000 
3756.2775784316   2664175000 
3793.8403542159   2625770000 
3831.778757758   2635675000 
3870.0965453356   2375760000 
3908.797510789   2524780000 
3947.8854858969   2310625000 
3987.3643407558   2353560000 
4027.2379841634   2251905000 
4067.510364005   2137815000 
4108.1854676451   2013985000 
4149.2673223215   2015890000 
4190.7599955447   1923910000 
4232.6675955002   1866975000 
4274.9942714552   1796030000 
4317.7442141697   1643495000 
4360.9216563114   1666040000 
4404.5308728746   1611395000 
4448.5761816033 1549216666.6667 
4493.0619434193   1475265000 
4537.9925628535   1422570000 
4583.3724884821   1390495000 
4629.2062133669   1315760000 
4675.4982755006   1268400000 
4722.2532582556   1260460000 
4769.4757908381 1211426666.6667 
4817.1705487465   1149640000 
4865.342254234 1086633333.3333 
4913.9956767763   1073055000 
4963.1356335441   1036240000 
5012.7669898795    997007000 
5062.8946597783    963733000 
5113.5236063761    927910000 
5164.6588424398    894924000 
5216.3054308642    861966500 
5268.4684851729    831896000 
5321.1531700246 798132333.33333 
5374.3647017249    762600000 
5428.1083487421    743925000 
5482.3894322295 713180333.33333 
5537.2133265518    683423000 
5592.5854598173    662074000 
5648.5113144155 635843666.66667 
5704.9964275597    572336000 
5762.0463918353    550302000 
5819.6668557536 533298666.66667 
5877.8635243112    524304000 
5936.6421595543 516697333.33333 
5996.0085811498    504426000 
6055.9686669613    486886000 
6116.5283536309 468727333.33333 
6177.6936371672    452476000 
6239.4705735389 436588666.66667 
6301.8652792743 420128333.33333 
6364.883932067 405133333.33333 
6428.5327713877    389207500 
6492.8180991016 370052666.66667 
6557.7462800926 350303333.33333 
6623.3237428935 347645666.66667 
6689.5569803225    332663250 
6756.4525501257 321727333.33333 
6824.0170756269    308093750 
6892.2572463832 297354666.66667 
6961.179818847    285898750 
7030.7916170355 274492333.33333 
7101.0995332059    264436250 
7172.1105285379    254829000 
7243.8316338233    245791000 
7316.2699501615 237068333.33333 
7389.4326496631    228448750 
7463.3269761598    218891250 
7537.9602459214    209275750 
7613.3398483806    202961000 
7689.4732468644    195493750 
7766.367979333    188355250 
7844.0316591264    180809500 
7922.4719757176    174171500 
8001.6966954748    167582250 
8081.7136624296    161313250 
8162.5307990539    151582500 
8244.1561070444    143350750 
8326.5976681148    138132000 
8409.863644796    133202800 
8493.9622812439    128488500 
8578.9019040564    124838000 
8664.6909230969    120426400 
8751.3378323279    118114250 
8838.8512106512    112642500 
8927.2397227577    109234600 
9016.5121199853    105533750 
9106.6772411851    102656000 
9197.744013597     95818300 
9289.721453733     94666060 
9382.6186682703     91275000 
9476.444854953     85315600 
9571.2093035025     84394575 
9666.9213965375     81161680 
9763.5906105029     78248100 
9861.226516608     75296360 
9959.838781774     71864840 
10059.437169592     68030250 
10160.031541288     67279450 
10261.631856701     64653100 
10364.248175268     62210950 
10467.89065702     60067300 
10572.56956359     57345500 
10678.295259226     54779400 
10785.078211819     52629450 
10892.928993937     49359500 
11001.858283876     49139000 
11111.876866715     47479800 
11222.995635382 45444633.333333 
11335.225591736     43524300 
11448.577847653     42067000 
11563.06362613 40055866.666667 
11678.694262391     38657350 
11795.481205015     37366100 
11913.436017065 35805233.333333 
12032.570377236     34424300 
12152.896081008     33345750 
12274.425041818 32042833.333333 
12397.169292236     30794950 
12521.140985159 29594633.333333 
12646.35239501     28475700 
12772.81591896 26801666.666667 
12900.54407815 26154633.333333 
13029.549518932     25203400 
13159.845014121 24279666.666667 
13291.443464262     23393150 
13424.357898905 22547433.333333 
13558.601477894     21586900 
13694.187492673 20671833.333333 
13831.129367599     19948400 
13969.440661275 19257366.666667 
14109.135067888 18465533.333333 
14250.226418567 17713333.333333 
14392.728682753     17001600 
14536.65596958 16326096.666667 
14682.022529276     15633900 
14828.842754569     15071900 
14977.131182115 14485566.666667 
15126.902493936     13932400 
15278.171518875 13399833.333333 
15430.953234064 12891833.333333 
15585.262766404 12405333.333333 
15741.115394068 11940566.666667 
15898.526548009 11470242.857143 
16057.511813489     10977700 
16218.086931624     10648800 
16380.26780094     10164400 
16544.07047895      9927535 
16709.511183739      9364900 
16876.606295577      9138360 
17045.372358532      8816460 
17215.826082118      8329870 
17387.984342939      8045260 
17561.864186368      7786930 
17737.482828232      7529845 
17914.857656514      7203205 
18094.006233079      6788365 
18274.94629541      6601790 
18457.695758364      6388820 
18642.272715948      6046440 
18828.695443107      5933925 
19016.982397539      5687860 
19207.152221514      5459070 
19399.223743729      5152830 
19593.215981166      5034715 
19789.148140978      4836075 
19987.039622388      4648145 
20186.910018612      4468680 
20388.779118798      4295775 
20592.666909986      4133705 
20798.593579086      3979700 
21006.579514877      3828560 
21216.645310025      3690640 
21428.811763126      3553950 
21643.099880757 3352206.6666667 
21859.530879564      3244935 
22078.12618836      3130040 
22298.907450244      3020235 
22521.896524746      2915190 
22747.115489993 2793566.6666667 
22974.586644893      2676050 
23204.332511342      2586065 
23436.375836456 2478446.6666667 
23670.73959482      2376155 
23907.446990769      2298090 
24146.521460676      2204880 
24387.986675283      2116905 
24631.866542036      2032160 
24878.185207456      1951545 
25126.967059531 1875433.3333333 
25378.236730126      1804125 
25632.019097427      1733470 
25888.339288402      1668225 
26147.222681286 1580076.6666667 
26408.694908098 1535276.6666667 
26672.781857179      1471000 
26939.509675751 1426053.3333333 
27208.904772509 1364153.3333333 
27480.993820234 1297766.6666667 
27755.803758436      1260175 
28033.361796021 1216156.6666667 
28313.695413981      1165660 
28596.832368121 1107856.6666667 
28882.800691802      1072440 
29171.62869872 1029293.3333333 
29463.344985707 988298.66666667 
29757.978435564       949293 
30055.55821992       905648 
30356.113802119 873215.33333333 
30659.67494014 843221.33333333 
30966.271689541 811280.33333333 
31275.934406437 780778.66666667 
31588.693750501 751666.66666667 
31904.580688006     724818.6 
32223.626494886     693154.5 
32545.862759835       667959 
32871.321387434     636351.5 
33200.034601308     614222.5 
33532.034947321       592618 
33867.355296794     571990.5 
34206.028849762       545822 
34548.08913826       527101 
34893.570029642     509291.5 
35242.505729939     486618.5 
35594.930787238     465207.5 
35950.880095111       444949 
36310.388896062       430445 
36673.492785022     416576.5 
37040.227712872     396583.5 
37410.629990001     378955.5 
37784.736289901       366183 
38162.5836528     351155.5 
38544.209489328       336947 
38929.651584221       322981 
39318.948100064     310460.5 
39712.137581064       297890 
40109.258956875       282695 
40510.351546444     275366.5 
40915.455061908       264797 
41324.609612527       253801 
41737.855708653     245097.5 
42155.234265739     236000.5 
42576.786608396     227208.5 
43002.55447448       218962 
43432.580019225     209973.5 
43866.905819417       201367 
44305.574877612     192693.5 
44748.630626388     185950.5 
45196.116932652       179461 
45648.078101978 171743.33333333 
46104.558882998     161971.5 
46565.604471828     157166.5 
47031.260516546       152219 
47501.573121712     145911.5 
47976.588852929     141106.5 
48456.354741458 135382.33333333 
48940.918288873       129927 
49430.327471761 124760.33333333 
49924.630746479       119830 
50423.877053944       115156 
50928.115824483       109383 
51437.396982728       106403 
51951.770952555     102407.5 
52471.288662081      98559.9 
52996.001548702      94172.5 
53525.961564189      90692.6 
54061.221179831      87386.1 
54601.833391629 83606.033333333 
55147.851725545      80589.6 
55699.330242801 77748.466666667 
56256.323545229 74477.833333333 
56818.886780681 71323.133333333 
57387.075648488 68436.233333333 
57960.946404973 65651.866666667 
58540.555869022 62370.533333333 
59125.961427713 60294.166666667 
59717.22104199 58098.466666667 
60314.39325241 55821.566666667 
60917.537184934 53653.966666667 
61526.712556783 51589.966666667 
62141.979682351 49603.333333333 
62763.399479174 47575.166666667 
63391.033473966      45964.6 
64024.943808706 43908.285714286 
64665.193246793      42369.4 
65311.845179261     40833.25 
65964.963631053      38886.7 
66624.613267364      37498.3 
67290.859400038     36007.35 
67963.767994038      34503.7 
68643.405673978      33307.5 
69329.839730718     32168.05 
70023.138128025      30719.6 
70723.369509305     29351.95 
71430.603204399      28373.7 
72144.909236443     27439.25 
72866.358328807      26250.4 
73595.021912095      25110.4 
74330.972131216     23468.05 
75074.281852528      23021.3 
75825.024671053      22324.4 
76583.274917764      21631.2 
77349.107666942        20742 
78122.598743611     19905.55 
78903.824731047      19107.2 
79692.862978358     18348.45 
80489.791608141     17626.55 
81294.689524223     16924.65 
82107.636419465      16286.4 
82928.712783659      15663.9 
83757.999911496      15070.6 
84595.579910611      14369.6 
85441.535709717      13705.9 
86295.951066814      13175.3 
87158.910577482      12604.7 
88030.499683257      12265.2 
88910.80468009     11827.45 
89799.912726891 11308.166666667 
90697.91185416        10815 
91604.890972701     10440.55 
92520.939882428 9995.6066666667 
93446.149281253      9531.24 
94380.610774065      9250.83 
95324.416881806       8867.8 
96277.661050624     8503.205 
97240.43766113 8158.2133333333 
98212.842037741     7829.545 
99194.970458119      7578.56 
100186.9201627      7396.87 
199060.83304441      452.594 
399467.9878358      27.3718 
594753.39981818      5.30396 
793700.71765891       1.6552 
997811.18987739     0.670732 
1193529.3359837     0.320613 
1399507.0114645     0.171747 
