#  WAVELENGTH	        FLUX	
#  (ANGSTROM)	(ERG/CM2/S/A)	
############	############	
651.92238283633  5.22601E-25 
658.44160666469  1.11215E-24 
671.67628295866  3.18649E-24 
678.39304578824  8.84451E-24 
692.02874600859  2.37679E-23 
698.94903346867  6.16958E-23 
712.99790904139  1.72222E-22 
720.12788813181  4.23679E-22 
734.60245868325   9.3174E-22 
741.94848327009  2.18256E-21 
749.36796810279  4.99415E-21 
764.43026426165  1.11798E-20 
772.07456690427  2.44268E-20 
779.79531257331  5.23549E-20 
787.59326569905  1.08705E-19 
803.4238903396  2.24634E-19 
811.45812924299  4.55343E-19 
819.57271053542  9.02714E-19 
827.76843764078   1.7578E-18 
844.40658323736  3.36538E-18 
852.85064906973  6.33824E-18 
861.37915556043  1.17486E-17 
869.99294711603  2.13872E-17 
878.69287658719  3.85926E-17 
887.47980535306  6.84585E-17 
896.3546034066  1.19763E-16 
914.37133093507  9.66816E-14 
923.51504424442  3.83285E-13 
932.75019468686  6.46913E-13 
942.07769663373  1.18036E-12 
951.49847360007  1.94502E-12 
961.01345833607  3.40399E-12 
970.62359291943  5.38727E-12 
980.32982884862  8.83986E-12 
990.13312713711  1.44071E-11 
1000.0344584085   2.4353E-11 
1010.0348029926  3.89373E-11 
1020.1351510225  5.91008E-11 
1030.3365025327  9.75459E-11 
1040.639867558  1.51803E-10 
1051.0462662336  2.32654E-10 
1061.556728896  3.57257E-10 
1072.1722961849  5.56706E-10 
1082.8940191468  8.36586E-10 
1093.7229593382   1.24174E-9 
1104.6601889316   2.17849E-9 
1115.7067908209   3.99078E-9 
1126.8638587291   5.81052E-9 
1138.1324973164   8.40573E-9 
1149.5138222896   1.22127E-8 
1161.0089605125   1.73895E-8 
1172.6190501176   2.46109E-8 
1184.3452406188   4.10699E-8 
1196.188693025   6.57658E-8 
1208.1505799552   6.60988E-8 
1220.2320857548   1.25125E-7 
1232.4344066123   1.71754E-7 
1244.7587506785   2.70063E-7 
1257.2063381852   4.25247E-7 
1269.7784015671   5.55144E-7 
1282.4761855828   8.34759E-7 
1295.3009474386   1.23313E-6 
1308.253956913   1.70454E-6 
1321.3364964821   2.22954E-6 
1334.5498614469  3.187175E-6 
1347.8953600614   4.89639E-6 
1361.374313662   5.47619E-6 
1374.9880567986   7.46723E-6 
1388.7379373666   1.00469E-5 
1402.6253167403    1.6207E-5 
1416.6515699077   2.25802E-5 
1430.8180856068 3.0681494117647E-5 
1445.1262664628 3.9967030769231E-5 
1459.5775291275   5.55803E-5 
1474.1733044187  6.811585E-5 
1488.9150374629   0.00011588 
1503.8041878376  0.000142694 
1518.8422297159  0.000212484 
1534.0306520131  0.000412078 
1549.3709585332  0.000735553 
1564.8646681186 0.0018129705 
1580.5133147997  0.003331025 
1596.3184479477   0.00336262 
1612.2816324272   0.00360628 
1628.4044487515   0.00655805 
1644.688493239   0.00843108 
1661.1353781714 0.018253322727273 
1677.7467319531    0.0678898 
1694.5241992726     0.200001 
1711.4694412654      0.43189 
1728.584135678     0.898359 
1745.8699770348      1.23562 
1763.3286768051     1.317665 
1780.9619635732     2.390275 
1798.7715832089     3.138925 
1816.759299041      4.76877 
1834.9268920314      3.93524 
1853.2761609517     5.455235 
1871.8089225613     8.037555 
1890.5270117869      12.3712 
1909.4322819047      14.7748 
1928.5266047238     13.64253 
1947.811870771 30.067736363636 
1967.2899894787 38.308794117647 
1986.9628893735 43.532938095238 
2006.8325182673     43.62625 
2026.9008434499      61.0775 
2047.1698518844      69.6361 
2067.6415504033     82.70619 
2088.3179659073     190.1825 
2109.2011455664     166.0715 
2130.293157022      260.628 
2151.5960885923     292.5475 
2173.1120494782     327.2025 
2194.843169973      439.202 
2216.7916016727     627.7445 
2238.9595176894     821.9875 
2261.3491128663     701.7675 
2283.962603995      973.015 
2306.8022300349      1153.61 
2329.8702523353     1198.318 
2353.1689548586 1111.5286666667 
2376.7006444072      1157.25 
2400.4676508513     1544.495 
2424.4723273598 3204.1433333333 
2448.7170506334     3562.305 
2473.2042211397 1612.9813333333 
2497.9362633511 2010.147173913 
2522.9156259846 3570.6577777778 
2548.1447822445     11971.98 
2573.6262300669 10047.313333333 
2599.3624923676 9271.9133333333 
2625.3561172913     34168.55 
2651.6096784642        53887 
2678.1257752488     47997.25 
2704.9070330013 34830.966666667 
2731.9561033313      23584.5 
2759.2756643647 32522.133333333 
2786.8684210083     7052.125 
2814.7371052184 40640.233333333 
2842.8844762706 17115.256666667 
2871.3133210333 92367.333333333 
2900.0264542436       189137 
2929.026718786       170185 
2958.3169859739       176793 
2987.9001558336       157576 
3017.779157392       204403 
3047.9569489659       236006 
3078.4365184556       316032 
3109.2208836401       373450 
3140.3130924765     429314.5 
3171.7162234013       381576 
3203.4333856353     366389.5 
3235.4677194916       500689 
3267.8223966866     650645.5 
3300.5006206534     593614.5 
3333.50562686       545433 
3366.8406831286       452847 
3400.5090899598       576086 
3434.5141808594       639325 
3468.859322668     707357.5 
3503.5479158947       690191 
3538.5833950537     523858.5 
3573.9692290042       489411 
3609.7089212942     819532.6 
3645.8060105072 1058756.6666667 
3682.2640706123      1088680 
3719.0867113184       705070 
3756.2775784316       900797 
3793.8403542159       555553 
3831.778757758       424058 
3870.0965453356      1015590 
3908.797510789     735934.5 
3947.8854858969       607390 
3987.3643407558      1710405 
4027.2379841634      1850435 
4067.510364005      1857430 
4108.1854676451      1930385 
4149.2673223215 1614343.3333333 
4190.7599955447      2123695 
4232.6675955002      2262110 
4274.9942714552      1794590 
4317.7442141697      2505625 
4360.9216563114      2589120 
4404.5308728746      2744030 
4448.5761816033 3090036.6666667 
4493.0619434193      3513220 
4537.9925628535      3494740 
4583.3724884821      3598315 
4629.2062133669 3545246.6666667 
4675.4982755006      3484065 
4722.2532582556      3912130 
4769.4757908381      4130600 
4817.1705487465      4081970 
4865.342254234 3894706.6666667 
4913.9956767763      4150475 
4963.1356335441      3816720 
5012.7669898795      3853965 
5062.8946597783 3894483.3333333 
5113.5236063761      3599605 
5164.6588424398 3639513.3333333 
5216.3054308642      4003520 
5268.4684851729 4033656.6666667 
5321.1531700246 4147156.6666667 
5374.3647017249      4110585 
5428.1083487421 4297423.3333333 
5482.3894322295 4131676.6666667 
5537.2133265518      4261700 
5592.5854598173      4353525 
5648.5113144155      4319240 
5704.9964275597      4477530 
5762.0463918353 4454476.6666667 
5819.6668557536      4635250 
5877.8635243112 4370193.3333333 
5936.6421595543 4545133.3333333 
5996.0085811498      4507840 
6055.9686669613 4417183.3333333 
6116.5283536309      4100780 
6177.6936371672 4297633.3333333 
6239.4705735389 4180843.3333333 
6301.8652792743 4132253.3333333 
6364.883932067 4152693.3333333 
6428.5327713877      4158655 
6492.8180991016 4158556.6666667 
6557.7462800926 4084563.3333333 
6623.3237428935 4095143.3333333 
6689.5569803225    4108462.5 
6756.4525501257 4056923.3333333 
6824.0170756269      4029565 
6892.2572463832 3927223.3333333 
6961.179818847    3780902.5 
7030.7916170355 3789676.6666667 
7101.0995332059      3627300 
7172.1105285379 3577323.3333333 
7243.8316338233      3566230 
7316.2699501615      3569180 
7389.4326496631      3498345 
7463.3269761598    3535782.5 
7537.9602459214    3552257.5 
7613.3398483806 3512076.6666667 
7689.4732468644      3469370 
7766.367979333    3497072.5 
7844.0316591264      3298595 
7922.4719757176      3153710 
8001.6966954748      3163350 
8081.7136624296      3009945 
8162.5307990539      2998780 
8244.1561070444      3004655 
8326.5976681148      2911525 
8409.863644796      2908190 
8493.9622812439    2612212.5 
8578.9019040564      2866030 
8664.6909230969      2703570 
8751.3378323279    2833697.5 
8838.8512106512    2833097.5 
8927.2397227577      2752232 
9016.5121199853    2744207.5 
9106.6772411851      2551278 
9197.744013597    2408697.5 
9289.721453733      2473400 
9382.6186682703      2331278 
9476.444854953      2369300 
9571.2093035025      2351525 
9666.9213965375      2309070 
9763.5906105029      2308464 
9861.226516608      2321290 
9959.838781774 2312637.3333333 
10059.437169592      2271780 
10160.031541288      2229515 
10261.631856701      2217990 
10364.248175268      2178270 
10467.89065702      2144175 
10572.56956359 2094263.3333333 
10678.295259226      2038895 
10785.078211819      1967085 
10892.928993937      1819890 
11001.858283876      1752670 
11111.876866715      1779240 
11222.995635382      1763050 
11335.225591736      1722975 
11448.577847653      1756070 
11563.06362613 1704243.3333333 
11678.694262391      1704750 
11795.481205015      1659650 
11913.436017065 1641816.6666667 
12032.570377236      1603550 
12152.896081008      1610155 
12274.425041818 1577606.6666667 
12397.169292236      1549570 
12521.140985159      1522150 
12646.35239501      1491595 
12772.81591896 1454976.6666667 
12900.54407815 1430873.3333333 
13029.549518932      1412590 
13159.845014121      1378750 
13291.443464262      1362205 
13424.357898905 1348386.6666667 
13558.601477894 1301443.3333333 
13694.187492673 1286313.3333333 
13831.129367599      1269590 
13969.440661275      1228060 
14109.135067888 1145913.3333333 
14250.226418567 1132573.3333333 
14392.728682753 1104586.6666667 
14536.65596958 1076323.3333333 
14682.022529276      1045390 
14828.842754569 1048953.3333333 
14977.131182115 1015596.6666667 
15126.902493936 1009426.6666667 
15278.171518875 997943.33333333 
15430.953234064 966988.66666667 
15585.262766404 957308.33333333 
15741.115394068 904082.33333333 
15898.526548009 908349.71428571 
16057.511813489       883132 
16218.086931624       884097 
16380.26780094       840549 
16544.07047895     842896.5 
16709.511183739       801783 
16876.606295577       803270 
17045.372358532     769306.5 
17215.826082118       724660 
17387.984342939     709533.5 
17561.864186368       693231 
17737.482828232     670007.5 
17914.857656514       646684 
18094.006233079     617242.5 
18274.94629541     595387.5 
18457.695758364       582149 
18642.272715948       552847 
18828.695443107     533837.5 
19016.982397539       527503 
19207.152221514     505775.5 
19399.223743729       484129 
19593.215981166     467409.5 
19789.148140978       452643 
19987.039622388     443364.5 
20186.910018612     420923.5 
20388.779118798     411739.5 
20592.666909986       394569 
20798.593579086       380359 
21006.579514877     371306.5 
21216.645310025     358766.5 
21428.811763126       347765 
21643.099880757       329417 
21859.530879564     319025.5 
22078.12618836       310074 
22298.907450244     299103.5 
22521.896524746     288522.5 
22747.115489993 269495.33333333 
22974.586644893     257049.5 
23204.332511342       233740 
23436.375836456       226297 
23670.73959482     212433.5 
23907.446990769       212526 
24146.521460676       198993 
24387.986675283       188939 
24631.866542036       186641 
24878.185207456     183966.5 
25126.967059531 175368.66666667 
25378.236730126       170273 
25632.019097427 165741.33333333 
25888.339288402     162385.5 
26147.222681286       156407 
26408.694908098 150930.33333333 
26672.781857179       149296 
26939.509675751 144134.33333333 
27208.904772509 139775.33333333 
27480.993820234       134629 
27755.803758436       131494 
28033.361796021 127635.33333333 
28313.695413981 123573.33333333 
28596.832368121 118743.66666667 
28882.800691802 115087.66666667 
29171.62869872 110549.66666667 
29463.344985707 107069.66666667 
29757.978435564       103023 
30055.55821992      99288.5 
30356.113802119 95873.333333333 
30659.67494014 92366.933333333 
30966.271689541 89223.633333333 
31275.934406437 86236.433333333 
31588.693750501 83135.233333333 
31904.580688006     80591.04 
32223.626494886      77033.3 
32545.862759835        74332 
32871.321387434     71530.15 
33200.034601308     68509.95 
33532.034947321        66231 
33867.355296794      63831.2 
34206.028849762     61412.45 
34548.08913826      59402.7 
34893.570029642      57599.7 
35242.505729939     55085.65 
35594.930787238      52716.1 
35950.880095111     50788.15 
36310.388896062      48832.9 
36673.492785022     47172.75 
37040.227712872     45013.95 
37410.629990001     43062.15 
37784.736289901      41747.3 
38162.5836528     40452.75 
38544.209489328      38729.9 
38929.651584221     37414.85 
39318.948100064     35761.65 
39712.137581064      34205.4 
40109.258956875      33201.3 
40510.351546444      32001.8 
40915.455061908     30976.05 
41324.609612527     29759.75 
41737.855708653     28648.15 
42155.234265739      27748.7 
42576.786608396      26170.5 
43002.55447448     24318.85 
43432.580019225     22707.45 
43866.905819417 21116.866666667 
44305.574877612     19509.05 
44748.630626388      19033.9 
45196.116932652     17851.95 
45648.078101978 17138.633333333 
46104.558882998     16403.05 
46565.604471828      16065.5 
47031.260516546      15511.1 
47501.573121712      14948.3 
47976.588852929      14603.1 
48456.354741458 14113.666666667 
48940.918288873      13560.9 
49430.327471761      13162.2 
49924.630746479     12712.15 
50423.877053944      12264.8 
50928.115824483     11821.15 
51437.396982728      11533.6 
51951.770952555      11062.6 
52471.288662081      10839.7 
52996.001548702 10361.766666667 
53525.961564189     10071.65 
54061.221179831      9765.04 
54601.833391629      9389.12 
55147.851725545     9176.155 
55699.330242801 8916.8166666667 
56256.323545229 8584.5166666667 
56818.886780681      8278.91 
57387.075648488 8017.1333333333 
57960.946404973 7731.9566666667 
58540.555869022 7435.8033333333 
59125.961427713         7193 
59717.22104199      6963.62 
60314.39325241 6693.8266666667 
60917.537184934 6462.6866666667 
61526.712556783      6280.05 
62141.979682351 6035.7333333333 
62763.399479174 5833.6533333333 
63391.033473966      5647.12 
64024.943808706 5414.0114285714 
64665.193246793      5235.16 
65311.845179261      5069.33 
65964.963631053      4845.32 
66624.613267364      4690.19 
67290.859400038     4527.495 
67963.767994038      4336.26 
68643.405673978      4192.63 
69329.839730718      4058.71 
70023.138128025      3884.44 
70723.369509305      3723.17 
71430.603204399      3603.06 
72144.909236443     3489.225 
72866.358328807     3345.115 
73595.021912095      3204.87 
74330.972131216       3068.2 
75074.281852528     2948.925 
75825.024671053      2859.32 
76583.274917764      2770.22 
77349.107666942      2659.08 
78122.598743611     2553.075 
78903.824731047      2452.33 
79692.862978358     2356.555 
80489.791608141      2267.17 
81294.689524223      2181.46 
82107.636419465      2102.31 
82928.712783659     2022.915 
83757.999911496     1948.755 
84595.579910611 1860.7233333333 
85441.535709717      1776.62 
86295.951066814     1713.495 
87158.910577482     1652.495 
88030.499683257     1592.825 
88910.80468009      1537.96 
89799.912726891 1472.3833333333 
90697.91185416     1408.735 
91604.890972701      1363.73 
92520.939882428      1307.22 
93446.149281253     1253.425 
94380.610774065      1212.01 
95324.416881806      1163.36 
96277.661050624     1116.985 
97240.43766113 1071.4933333333 
98212.842037741     1030.825 
99194.970458119      997.851 
100186.9201627      974.991 
199060.83304441      62.5862 
399467.9878358      3.87845 
594753.39981818     0.755963 
793700.71765891     0.236481 
997811.18987739    0.0959795 
1193529.3359837    0.0459507 
1399507.0114645    0.0246585 
