#  WAVELENGTH	        FLUX	
#  (ANGSTROM)	(ERG/CM2/S/A)	
############	############	
567.14833210579  5.19735E-25 
578.54801358112  1.83169E-24 
584.33349371693  6.30107E-24 
596.07859694064  2.05297E-23 
608.05977673914  6.42881E-23 
614.14037450653  1.93324E-22 
626.48459603412  5.60321E-22 
639.0769364144  1.56818E-21 
645.46770577855  4.24353E-21 
651.92238283633  9.19368E-21 
658.44160666469  1.77578E-20 
671.67628295866  4.44865E-20 
678.39304578824  1.08356E-19 
692.02874600859  2.56483E-19 
698.94903346867  5.88223E-19 
712.99790904139  1.44003E-18 
720.12788813181  3.15415E-18 
734.60245868325  6.26269E-18 
741.94848327009  1.31368E-17 
749.36796810279  2.69886E-17 
764.43026426165  5.44228E-17 
772.07456690427  1.07375E-16 
779.79531257331   2.0841E-16 
787.59326569905   3.9247E-16 
803.4238903396  7.37909E-16 
811.45812924299  1.36445E-15 
819.57271053542  2.47141E-15 
827.76843764078  4.40893E-15 
844.40658323736  7.74751E-15 
852.85064906973  1.34268E-14 
861.37915556043  2.29288E-14 
869.99294711603  3.85212E-14 
878.69287658719  6.42758E-14 
887.47980535306   1.0566E-13 
896.3546034066  1.71428E-13 
914.37133093507  1.89287E-10 
923.51504424442  6.90257E-10 
932.75019468686   1.04406E-9 
942.07769663373   1.68132E-9 
951.49847360007   2.76476E-9 
961.01345833607   4.44322E-9 
970.62359291943   6.63878E-9 
980.32982884862   9.68905E-9 
990.13312713711   1.41967E-8 
1000.0344584085   2.27443E-8 
1010.0348029926   3.36409E-8 
1020.1351510225   4.73465E-8 
1030.3365025327   7.25732E-8 
1040.639867558   1.04651E-7 
1051.0462662336   1.49105E-7 
1061.556728896   2.08891E-7 
1072.1722961849   2.98043E-7 
1082.8940191468   4.21268E-7 
1093.7229593382   5.65397E-7 
1104.6601889316  1.303234E-6 
1115.7067908209   2.34752E-6 
1126.8638587291   3.36571E-6 
1138.1324973164   4.57756E-6 
1149.5138222896   5.89596E-6 
1161.0089605125   8.21842E-6 
1172.6190501176   1.07827E-5 
1184.3452406188    1.4155E-5 
1196.188693025   1.90108E-5 
1208.1505799552   1.42337E-5 
1220.2320857548   3.07737E-5 
1232.4344066123   4.47761E-5 
1244.7587506785  6.527005E-5 
1257.2063381852     8.681E-5 
1269.7784015671  0.000111599 
1282.4761855828  0.000154943 
1295.3009474386  0.000203075 
1308.253956913  0.000266858 
1321.3364964821  0.000321084 
1334.5498614469 0.0004497905 
1347.8953600614  0.000624776 
1361.374313662  0.000760163 
1374.9880567986  0.001001339 
1388.7379373666   0.00132812 
1402.6253167403  0.001830705 
1416.6515699077   0.00233315 
1430.8180856068 0.0032256794117647 
1445.1262664628 0.0039695015384615 
1459.5775291275   0.00544114 
1474.1733044187   0.00669161 
1488.9150374629    0.0094077 
1503.8041878376 0.011479122727273 
1518.8422297159    0.0158312 
1534.0306520131    0.0958512 
1549.3709585332     0.205844 
1564.8646681186    0.3355315 
1580.5133147997    0.6802785 
1596.3184479477     0.806349 
1612.2816324272     0.989125 
1628.4044487515      1.26142 
1644.688493239     1.576145 
1661.1353781714 3.1208786363636 
1677.7467319531      11.3074 
1694.5241992726     28.00935 
1711.4694412654     41.67715 
1728.584135678      76.8274 
1745.8699770348      134.142 
1763.3286768051     131.8685 
1780.9619635732     201.2115 
1798.7715832089     233.6875 
1816.759299041      310.423 
1834.9268920314     290.4835 
1853.2761609517     414.2305 
1871.8089225613      558.368 
1890.5270117869       774.28 
1909.4322819047     870.8295 
1928.5266047238      907.912 
1947.811870771 1555.1081818182 
1967.2899894787 1818.5188235294 
1986.9628893735 2240.4928571429 
2006.8325182673      2249.15 
2026.9008434499     3096.645 
2047.1698518844     3315.405 
2067.6415504033    4400.6825 
2088.3179659073     8369.125 
2109.2011455664     8680.075 
2130.293157022    10584.845 
2151.5960885923     12933.05 
2173.1120494782     15411.35 
2194.843169973 16737.766666667 
2216.7916016727      21829.7 
2238.9595176894      21556.3 
2261.3491128663     20072.25 
2283.962603995      28013.2 
2306.8022300349     24563.25 
2329.8702523353     14899.35 
2353.1689548586      19540.9 
2376.7006444072      12382.5 
2400.4676508513     17616.95 
2424.4723273598      46635.3 
2448.7170506334      53024.3 
2473.2042211397 31116.933333333 
2497.9362633511 35606.934782609 
2522.9156259846 36648.233333333 
2548.1447822445      97854.2 
2573.6262300669 67356.166666667 
2599.3624923676 44609.333333333 
2625.3561172913     199788.5 
2651.6096784642 306260.66666667 
2678.1257752488     279395.5 
2704.9070330013       203584 
2731.9561033313 112099.26666667 
2759.2756643647 134973.03333333 
2786.8684210083     30217.65 
2814.7371052184 211463.33333333 
2842.8844762706 189142.56666667 
2871.3133210333 477036.66666667 
2900.0264542436       786550 
2929.026718786       688106 
2958.3169859739       803354 
2987.9001558336       817032 
3017.779157392       931926 
3047.9569489659     964544.5 
3078.4365184556      1122520 
3109.2208836401      1171970 
3140.3130924765      1209260 
3171.7162234013      1081310 
3203.4333856353      1075100 
3235.4677194916      1373670 
3267.8223966866      1669855 
3300.5006206534      1594205 
3333.50562686      1484830 
3366.8406831286      1342935 
3400.5090899598      1613010 
3434.5141808594      1845840 
3468.859322668      1882725 
3503.5479158947      1937970 
3538.5833950537      1729855 
3573.9692290042      1574230 
3609.7089212942      2036030 
3645.8060105072 2414323.3333333 
3682.2640706123      2621930 
3719.0867113184      2432160 
3756.2775784316      2783735 
3793.8403542159      2173630 
3831.778757758      1749065 
3870.0965453356      2845380 
3908.797510789      1960701 
3947.8854858969      1535300 
3987.3643407558      4072680 
4027.2379841634      4534630 
4067.510364005      4710265 
4108.1854676451      4916120 
4149.2673223215      4622560 
4190.7599955447      5094135 
4232.6675955002      5169175 
4274.9942714552      4160100 
4317.7442141697      5416365 
4360.9216563114      5695320 
4404.5308728746      5861020 
4448.5761816033      6396440 
4493.0619434193      7080165 
4537.9925628535      7008580 
4583.3724884821      7036370 
4629.2062133669 7029803.3333333 
4675.4982755006      6836665 
4722.2532582556      7418875 
4769.4757908381      7612240 
4817.1705487465      7413985 
4865.342254234      7022870 
4913.9956767763      7470785 
4963.1356335441 6951763.3333333 
5012.7669898795      7010815 
5062.8946597783 7160603.3333333 
5113.5236063761      6652665 
5164.6588424398      6644420 
5216.3054308642      7006090 
5268.4684851729 6899823.3333333 
5321.1531700246      7077630 
5374.3647017249      7025065 
5428.1083487421 7267936.6666667 
5482.3894322295      7017780 
5537.2133265518      7119820 
5592.5854598173      7246765 
5648.5113144155 7079483.3333333 
5704.9964275597 7290463.3333333 
5762.0463918353 7226783.3333333 
5819.6668557536 7392973.3333333 
5877.8635243112 7087443.3333333 
5936.6421595543 7210916.6666667 
5996.0085811498 7095256.6666667 
6055.9686669613      6948960 
6116.5283536309      6483740 
6177.6936371672 6755393.3333333 
6239.4705735389      6572710 
6301.8652792743      6468240 
6364.883932067      6466890 
6428.5327713877    6415162.5 
6492.8180991016 6390493.3333333 
6557.7462800926 6119933.3333333 
6623.3237428935      6256730 
6689.5569803225    6208347.5 
6756.4525501257      6095080 
6824.0170756269      6023550 
6892.2572463832 5917373.3333333 
6961.179818847    5740712.5 
7030.7916170355 5699653.3333333 
7101.0995332059    5523122.5 
7172.1105285379 5365513.3333333 
7243.8316338233      5349685 
7316.2699501615 5336776.6666667 
7389.4326496631      5146095 
7463.3269761598      5181945 
7537.9602459214      5146970 
7613.3398483806      5056690 
7689.4732468644      4965635 
7766.367979333    4946537.5 
7844.0316591264    4783067.5 
7922.4719757176    4635692.5 
8001.6966954748    4585432.5 
8081.7136624296    4482957.5 
8162.5307990539      4362400 
8244.1561070444      4340210 
8326.5976681148      4223005 
8409.863644796      4124000 
8493.9622812439      3638610 
8578.9019040564    4002797.5 
8664.6909230969      3741852 
8751.3378323279      3950890 
8838.8512106512    3872762.5 
8927.2397227577      3777720 
9016.5121199853      3733540 
9106.6772411851      3629942 
9197.744013597    3419447.5 
9289.721453733      3495052 
9382.6186682703      3341482 
9476.444854953      3316006 
9571.2093035025      3273885 
9666.9213965375      3210630 
9763.5906105029      3182580 
9861.226516608      3142378 
9959.838781774 3105029.3333333 
10059.437169592      3018315 
10160.031541288      2966735 
10261.631856701      2933555 
10364.248175268      2870225 
10467.89065702      2792835 
10572.56956359 2725013.3333333 
10678.295259226      2645055 
10785.078211819      2562870 
10892.928993937      2440570 
11001.858283876      2405455 
11111.876866715      2382070 
11222.995635382 2329356.6666667 
11335.225591736      2267350 
11448.577847653      2288580 
11563.06362613 2199716.6666667 
11678.694262391      2180190 
11795.481205015      2116055 
11913.436017065 2096283.3333333 
12032.570377236      2038915 
12152.896081008      2034085 
12274.425041818 1985696.6666667 
12397.169292236      1945235 
12521.140985159      1894910 
12646.35239501      1857680 
12772.81591896      1791970 
12900.54407815      1765690 
13029.549518932      1734815 
13159.845014121 1688823.3333333 
13291.443464262      1660635 
13424.357898905 1633633.3333333 
13558.601477894      1573790 
13694.187492673 1539863.3333333 
13831.129367599      1518575 
13969.440661275 1478286.6666667 
14109.135067888 1414626.6666667 
14250.226418567      1382660 
14392.728682753 1332373.3333333 
14536.65596958 1312501.3333333 
14682.022529276 1266506.6666667 
14828.842754569      1253160 
14977.131182115 1213116.6666667 
15126.902493936      1197530 
15278.171518875 1167766.6666667 
15430.953234064 1131126.6666667 
15585.262766404 1111783.3333333 
15741.115394068 1053463.3333333 
15898.526548009      1056360 
16057.511813489      1010860 
16218.086931624      1015075 
16380.26780094       956938 
16544.07047895     964784.5 
16709.511183739       908572 
16876.606295577       911030 
17045.372358532     873193.5 
17215.826082118     815108.5 
17387.984342939       800170 
17561.864186368       780738 
17737.482828232     756746.5 
17914.857656514       729885 
18094.006233079     689452.5 
18274.94629541       672240 
18457.695758364       654474 
18642.272715948     619140.5 
18828.695443107       601126 
19016.982397539     592475.5 
19207.152221514       567597 
19399.223743729       539253 
19593.215981166     526717.5 
19789.148140978     510224.5 
19987.039622388     497549.5 
20186.910018612       473345 
20388.779118798       462850 
20592.666909986     444004.5 
20798.593579086       427867 
21006.579514877       415968 
21216.645310025       401647 
21428.811763126     389926.5 
21643.099880757 367565.66666667 
21859.530879564       357384 
22078.12618836     346471.5 
22298.907450244     335055.5 
22521.896524746     322332.5 
22747.115489993 306145.66666667 
22974.586644893       293930 
23204.332511342       274982 
23436.375836456 266474.33333333 
23670.73959482       253135 
23907.446990769     249922.5 
24146.521460676 236445.33333333 
24387.986675283       225959 
24631.866542036 221091.66666667 
24878.185207456     214969.5 
25126.967059531 206700.33333333 
25378.236730126     199910.5 
25632.019097427       192978 
25888.339288402     188693.5 
26147.222681286       180043 
26408.694908098 174359.66666667 
26672.781857179       169733 
26939.509675751 165252.66666667 
27208.904772509 159390.66666667 
27480.993820234 151969.33333333 
27755.803758436     148564.5 
28033.361796021       143981 
28313.695413981       138659 
28596.832368121 132324.33333333 
28882.800691802       128486 
29171.62869872 123352.66666667 
29463.344985707       119170 
29757.978435564 114566.33333333 
30055.55821992       109866 
30356.113802119       106245 
30659.67494014 102413.66666667 
30966.271689541 98701.433333333 
31275.934406437 95417.466666667 
31588.693750501 92032.766666667 
31904.580688006     89080.38 
32223.626494886     85286.45 
32545.862759835      82234.6 
32871.321387434        78815 
33200.034601308     75720.55 
33532.034947321        73111 
33867.355296794     70556.45 
34206.028849762     67878.45 
34548.08913826      65635.1 
34893.570029642     63629.15 
35242.505729939      60859.7 
35594.930787238      58237.8 
35950.880095111      56033.3 
36310.388896062      53925.8 
36673.492785022     52099.75 
37040.227712872      49767.9 
37410.629990001      47526.7 
37784.736289901     46104.65 
38162.5836528     44612.25 
38544.209489328     42730.15 
38929.651584221     41211.25 
39318.948100064     39496.15 
39712.137581064     37771.75 
40109.258956875     36502.25 
40510.351546444     35282.55 
40915.455061908     34142.35 
41324.609612527     32749.05 
41737.855708653     31580.45 
42155.234265739      30578.7 
42576.786608396      29020.5 
43002.55447448      27281.9 
43432.580019225      25616.8 
43866.905819417 24224.566666667 
44305.574877612     22755.35 
44748.630626388      22136.8 
45196.116932652     20909.15 
45648.078101978      20111.2 
46104.558882998      19261.2 
46565.604471828     18809.85 
47031.260516546      18160.1 
47501.573121712      17472.3 
47976.588852929      17018.2 
48456.354741458      16417.6 
48940.918288873      15793.9 
49430.327471761 15260.733333333 
49924.630746479      14710.9 
50423.877053944 14184.466666667 
50928.115824483      13658.9 
51437.396982728 13280.133333333 
51951.770952555     12751.95 
52471.288662081 12413.933333333 
52996.001548702      11888.3 
53525.961564189     11520.55 
54061.221179831 11133.733333333 
54601.833391629      10696.6 
55147.851725545      10387.6 
55699.330242801 10074.056666667 
56256.323545229      9692.31 
56818.886780681 9324.0333333333 
57387.075648488 9000.2166666667 
57960.946404973 8662.3233333333 
58540.555869022         8321 
59125.961427713      8027.02 
59717.22104199 7762.4166666667 
60314.39325241 7462.9066666667 
60917.537184934 7194.8366666667 
61526.712556783 6967.3666666667 
62141.979682351      6701.68 
62763.399479174 6466.5633333333 
63391.033473966 6253.8433333333 
64024.943808706 5991.6657142857 
64665.193246793      5788.27 
65311.845179261       5601.5 
65964.963631053      5348.99 
66624.613267364      5171.09 
67290.859400038      4989.58 
67963.767994038     4774.975 
68643.405673978      4614.86 
69329.839730718      4464.39 
70023.138128025     4270.005 
70723.369509305      4090.64 
71430.603204399      3957.35 
72144.909236443      3829.67 
72866.358328807     3671.395 
73595.021912095     3517.105 
74330.972131216     3359.805 
75074.281852528       3235.6 
75825.024671053      3138.44 
76583.274917764     3043.075 
77349.107666942      2923.38 
78122.598743611      2808.89 
78903.824731047     2698.675 
79692.862978358      2592.82 
80489.791608141      2493.61 
81294.689524223      2397.06 
82107.636419465      2309.72 
82928.712783659     2222.085 
83757.999911496     2140.595 
84595.579910611 2044.4933333333 
85441.535709717     1952.185 
86295.951066814     1882.735 
87158.910577482     1814.825 
88030.499683257      1750.45 
88910.80468009      1689.88 
89799.912726891 1617.3933333333 
90697.91185416     1547.455 
91604.890972701     1497.555 
92520.939882428 1435.2033333333 
93446.149281253     1375.515 
94380.610774065      1330.41 
95324.416881806 1276.4433333333 
96277.661050624     1225.705 
97240.43766113      1175.67 
98212.842037741      1130.79 
99194.970458119     1094.595 
100186.9201627      1069.29 
199060.83304441      68.8126 
399467.9878358      4.28107 
594753.39981818     0.837491 
793700.71765891     0.262675 
997811.18987739     0.106765 
1193529.3359837    0.0511386 
1399507.0114645     0.027436 
