#  WAVELENGTH	        FLUX	
#  (ANGSTROM)	(ERG/CM2/S/A)	
############	############	
        90.9  2.78476E-17 
    92.72709  1.55898E-16 
95.53681355409  7.99091E-16 
97.457103506527  2.09782E-15 
99.415991287008  6.35113E-15 
101.41425271188  2.43372E-14 
103.45267919139  6.42206E-14 
105.53207804313  1.64238E-13 
107.6532728118  4.73084E-13 
109.81710359532  1.74342E-12 
113.14467165136  9.06315E-12 
117.73879903054   4.6684E-11 
120.10534889105   1.9392E-10 
123.7446610678  7.46975E-10 
126.23192875526   1.74452E-9 
127.49424804281   2.78208E-9 
130.05688242847   5.79709E-9 
131.35745125276   1.10777E-8 
132.67102576529   1.82295E-8 
135.33771338317   4.35874E-8 
139.43858143639   1.17585E-7 
142.24129692326   3.31765E-7 
146.55135046134   9.97191E-7 
150.99200293167   2.76686E-6 
154.02694219059   8.08576E-6 
158.69411256591   1.94226E-5 
161.88386422848   4.10752E-5 
165.13772989948  0.000100767 
170.14156825316  0.000251612 
171.84298393569  0.000476622 
175.2970279128  0.000934456 
178.82049817385   0.00178388 
180.60870315558   0.00235966 
186.0813274699   0.00519912 
189.82156215205    0.0120389 
193.6369755513     0.019385 
197.52907875988    0.0395705 
201.49941324296    0.0663555 
203.51440737539     0.106246 
209.68109743327     0.231402 
216.03464436659     0.495308 
218.19499081026      0.78891 
222.58071012555      1.17597 
224.8065172268      1.94707 
229.32512822306      162.728 
233.93456330034       336.88 
238.63664802268      575.332 
245.86757709442       1028.9 
250.80951539401      1732.15 
255.85078665343      2474.22 
258.40929451997      3948.09 
263.60332133982      5924.26 
266.23935455322      8800.02 
271.59076557974      12563.7 
277.04973996789      16984.9 
282.61843974125      35063.4 
288.29907038004      51850.9 
294.09388169468        72271 
300.00516871675       101271 
306.03527260795       217951 
315.30844740325       432337 
324.86260866801       661267 
334.70627057326      1151160 
344.8482052779      1814720 
355.29745074603      5034230 
362.43892950602     10470100 
373.42119150899     13033700 
384.7362270329     19487600 
392.46942519626     39864300 
404.36164124913     49748500 
412.48931023824     70217700 
420.78034537403     82816200 
429.23803031605    102025000 
437.8657147254    129032000 
446.66681559138    146252000 
455.64481858477    160303000 
469.4513122327    198939000 
478.88728360858    239953000 
488.51291800911    276389000 
498.3320276611    325931000 
503.31534793771    546800000 
508.34850141708   4438670000 
518.56630629557   4197540000 
528.98948905211   3931600000 
539.62217778206   3634350000 
545.01839955988   4714180000 
555.97326939103   5796670000 
567.14833210579   6016650000 
578.54801358112   5524070000 
584.33349371693   6065010000 
596.07859694064   5070570000 
608.05977673914   6196470000 
614.14037450653   7130440000 
626.48459603412   6924940000 
639.0769364144   6528130000 
645.46770577855   6632520000 
651.92238283633   5902010000 
658.44160666469   6811430000 
671.67628295866   7322700000 
678.39304578824   5882380000 
692.02874600859   8289980000 
698.94903346867   6875410000 
712.99790904139   8909440000 
720.12788813181   8605660000 
734.60245868325   8606800000 
741.94848327009   8730920000 
749.36796810279   8758260000 
764.43026426165   9040630000 
772.07456690427   9353250000 
779.79531257331   9746160000 
787.59326569905   9689680000 
803.4238903396   9340000000 
811.45812924299   9240950000 
819.57271053542   9878430000 
827.76843764078   7882830000 
844.40658323736   9347230000 
852.85064906973   9178300000 
861.37915556043   9543320000 
869.99294711603   9690550000 
878.69287658719  10019700000 
887.47980535306  10128100000 
896.3546034066   9739960000 
914.37133093507   9960180000 
923.51504424442  28288700000 
932.75019468686  49660300000 
942.07769663373  77368900000 
951.49847360007  88731700000 
961.01345833607 106883000000 
970.62359291943  29336300000 
980.32982884862  83983600000 
990.13312713711  75618200000 
1000.0344584085  82516700000 
1010.0348029926  87653000000 
1020.1351510225  56755500000 
1030.3365025327  80299400000 
1040.639867558 102163000000 
1051.0462662336  94498500000 
1061.556728896  75108500000 
1072.1722961849  82239400000 
1082.8940191468  74211500000 
1093.7229593382  80864800000 
1104.6601889316  75357600000 
1115.7067908209  55820800000 
1126.8638587291  70911100000 
1138.1324973164  66833000000 
1149.5138222896  64195500000 
1161.0089605125  61613000000 
1172.6190501176  35786800000 
1184.3452406188  55067100000 
1196.188693025  48859900000 
1208.1505799552  34834700000 
1220.2320857548  49454100000 
1232.4344066123  54559800000 
1244.7587506785  51763950000 
1257.2063381852  53509400000 
1269.7784015671  55454100000 
1282.4761855828  51806350000 
1295.3009474386  49319500000 
1308.253956913  54628500000 
1321.3364964821  51584100000 
1334.5498614469  49704350000 
1347.8953600614  48810100000 
1361.374313662  45859300000 
1374.9880567986  42948400000 
1388.7379373666  29909600000 
1402.6253167403  35313900000 
1416.6515699077  35073300000 
1430.8180856068 37725529411.765 
1445.1262664628  36193800000 
1459.5775291275  33428400000 
1474.1733044187  34024500000 
1488.9150374629  32796100000 
1503.8041878376 29488436363.636 
1518.8422297159  28685400000 
1534.0306520131  22367850000 
1549.3709585332  20734000000 
1564.8646681186  24200050000 
1580.5133147997  25120700000 
1596.3184479477  24542800000 
1612.2816324272  23394550000 
1628.4044487515  24317000000 
1644.688493239  24396800000 
1661.1353781714 24024913636.364 
1677.7467319531  24748900000 
1694.5241992726  23365350000 
1711.4694412654  21362350000 
1728.584135678  21650250000 
1745.8699770348  21379300000 
1763.3286768051  20472150000 
1780.9619635732  20266650000 
1798.7715832089  19524000000 
1816.759299041  18929100000 
1834.9268920314  17922950000 
1853.2761609517  17818950000 
1871.8089225613  16989900000 
1890.5270117869  15934200000 
1909.4322819047  15054100000 
1928.5266047238  15887450000 
1947.811870771 14777645454.545 
1967.2899894787 15429052941.176 
1986.9628893735 14800890476.19 
2006.8325182673  14981400000 
2026.9008434499  13990600000 
2047.1698518844  11969400000 
2067.6415504033  12040955000 
2088.3179659073  12414400000 
2109.2011455664  12992600000 
2130.293157022  12503150000 
2151.5960885923  12301800000 
2173.1120494782  11990200000 
2194.843169973  11777200000 
2216.7916016727  11286700000 
2238.9595176894  10901250000 
2261.3491128663  10738000000 
2283.962603995 9810573333.3333 
2306.8022300349   9808850000 
2329.8702523353   9595395000 
2353.1689548586   9200790000 
2376.7006444072   8712715000 
2400.4676508513   8606860000 
2424.4723273598   8348440000 
2448.7170506334   8107095000 
2473.2042211397 7157696666.6667 
2497.9362633511 7176562173.913 
2522.9156259846 7249627037.037 
2548.1447822445   7000935000 
2573.6262300669   6817960000 
2599.3624923676 6568423333.3333 
2625.3561172913   6361490000 
2651.6096784642 6059613333.3333 
2678.1257752488   5865495000 
2704.9070330013 5621746666.6667 
2731.9561033313 5468823333.3333 
2759.2756643647 5319736666.6667 
2786.8684210083   5057900000 
2814.7371052184 4992863333.3333 
2842.8844762706   4825390000 
2871.3133210333 4640716666.6667 
2900.0264542436   4454590000 
2929.026718786   4351055000 
2958.3169859739   4197120000 
2987.9001558336   3991075000 
3017.779157392   3853110000 
3047.9569489659   3780880000 
3078.4365184556   3593460000 
3109.2208836401   3532650000 
3140.3130924765   3372080000 
3171.7162234013   3262400000 
3203.4333856353   3154685000 
3235.4677194916   3073950000 
3267.8223966866   2956870000 
3300.5006206534   2828920000 
3333.50562686   2733810000 
3366.8406831286   2659035000 
3400.5090899598   2562460000 
3434.5141808594   2472160000 
3468.859322668   2400995000 
3503.5479158947   2312245000 
3538.5833950537   2225245000 
3573.9692290042   2139500000 
3609.7089212942   2079514000 
3645.8060105072   1984390000 
3682.2640706123   1899290000 
3719.0867113184   1808070000 
3756.2775784316   1748000000 
3793.8403542159   1715125000 
3831.778757758   1803890000 
3870.0965453356   1504320000 
3908.797510789   1784580000 
3947.8854858969   1544705000 
3987.3643407558   1658910000 
4027.2379841634   1584350000 
4067.510364005   1454375000 
4108.1854676451   1359620000 
4149.2673223215 1434746666.6667 
4190.7599955447   1388080000 
4232.6675955002   1310485000 
4274.9942714552   1245840000 
4317.7442141697   1081455000 
4360.9216563114   1160850000 
4404.5308728746   1149025000 
4448.5761816033 1095496666.6667 
4493.0619434193   1068750000 
4537.9925628535   1038535000 
4583.3724884821    998061000 
4629.2062133669 938959666.66667 
4675.4982755006    911759000 
4722.2532582556    899524500 
4769.4757908381    872059000 
4817.1705487465    801362000 
4865.342254234 758494666.66667 
4913.9956767763    762398000 
4963.1356335441 741375666.66667 
5012.7669898795    714948000 
5062.8946597783    693107000 
5113.5236063761    662318000 
5164.6588424398 643489333.33333 
5216.3054308642    620443000 
5268.4684851729 598299666.66667 
5321.1531700246 574137666.66667 
5374.3647017249    552670500 
5428.1083487421 535223666.66667 
5482.3894322295 513268666.66667 
5537.2133265518 493190666.66667 
5592.5854598173    477060000 
5648.5113144155 457183333.33333 
5704.9964275597 438280666.66667 
5762.0463918353 422647333.33333 
5819.6668557536 401807666.66667 
5877.8635243112 388739666.66667 
5936.6421595543 376093666.66667 
5996.0085811498 363118666.66667 
6055.9686669613    350613000 
6116.5283536309 336865666.66667 
6177.6936371672 325739333.33333 
6239.4705735389    313669000 
6301.8652792743 302584666.66667 
6364.883932067    292266000 
6428.5327713877    279668000 
6492.8180991016    263906000 
6557.7462800926 245328333.33333 
6623.3237428935 249570666.66667 
6689.5569803225    239837750 
6756.4525501257 230935666.66667 
6824.0170756269    222442250 
6892.2572463832    213927000 
6961.179818847    206040750 
7030.7916170355    197162000 
7101.0995332059    190443750 
7172.1105285379 183237333.33333 
7243.8316338233    176905500 
7316.2699501615 170909666.66667 
7389.4326496631    164842250 
7463.3269761598    157739000 
7537.9602459214    151690000 
7613.3398483806 146473666.66667 
7689.4732468644    141299500 
7766.367979333    135949750 
7844.0316591264    130473750 
7922.4719757176    125634750 
8001.6966954748    120899000 
8081.7136624296    116112250 
8162.5307990539    111435750 
8244.1561070444    107331750 
8326.5976681148    103594000 
8409.863644796     99474480 
8493.9622812439     95443375 
8578.9019040564     91788075 
8664.6909230969     87656600 
8751.3378323279     85678975 
8838.8512106512     80626500 
8927.2397227577     78875520 
9016.5121199853     76087575 
9106.6772411851     75076020 
9197.744013597     67870900 
9289.721453733     69637820 
9382.6186682703     66925680 
9476.444854953     60747020 
9571.2093035025     61597350 
9666.9213965375     59701560 
9763.5906105029     57543900 
9861.226516608     55149880 
9959.838781774     51946900 
10059.437169592     49364000 
10160.031541288     49427200 
10261.631856701     47492200 
10364.248175268     45842650 
10467.89065702     44144850 
10572.56956359 42137933.333333 
10678.295259226     40268600 
10785.078211819     38489300 
10892.928993937     35159800 
11001.858283876     35982150 
11111.876866715     34897600 
11222.995635382     33384500 
11335.225591736     31966300 
11448.577847653     30917000 
11563.06362613 29595833.333333 
11678.694262391     28423000 
11795.481205015     27486500 
11913.436017065     26269700 
12032.570377236     25327600 
12152.896081008     24524500 
12274.425041818     23561000 
12397.169292236     22640600 
12521.140985159 21741633.333333 
12646.35239501     20921550 
12772.81591896 19303133.333333 
12900.54407815     19183000 
13029.549518932     18545100 
13159.845014121 17866066.666667 
13291.443464262     17199000 
13424.357898905 16578733.333333 
13558.601477894 15873766.666667 
13694.187492673     15211100 
13831.129367599     14674000 
13969.440661275 14172033.333333 
14109.135067888     13595900 
14250.226418567 13043466.666667 
14392.728682753     12520900 
14536.65596958 12023536.666667 
14682.022529276 11549566.666667 
14828.842754569 11102166.666667 
14977.131182115 10666466.666667 
15126.902493936 10267166.666667 
15278.171518875 9877413.3333333 
15430.953234064      9503740 
15585.262766404      9144470 
15741.115394068      8800610 
15898.526548009 8451387.1428571 
16057.511813489      8081960 
16218.086931624      7841220 
16380.26780094      7469390 
16544.07047895      7340090 
16709.511183739      6862005 
16876.606295577      6751600 
17045.372358532      6514265 
17215.826082118      6104135 
17387.984342939      5939805 
17561.864186368      5769420 
17737.482828232      5575545 
17914.857656514      5330250 
18094.006233079      4955150 
18274.94629541      4889750 
18457.695758364      4725690 
18642.272715948      4439940 
18828.695443107      4390565 
19016.982397539      4209130 
19207.152221514      4036375 
19399.223743729      3760750 
19593.215981166      3732565 
19789.148140978      3586040 
19987.039622388      3446550 
20186.910018612      3313770 
20388.779118798      3183270 
20592.666909986      3066355 
20798.593579086      2951450 
21006.579514877      2834985 
21216.645310025      2737710 
21428.811763126      2629865 
21643.099880757 2459756.6666667 
21859.530879564      2407775 
22078.12618836      2322310 
22298.907450244      2241380 
22521.896524746      2163565 
22747.115489993 2071163.3333333 
22974.586644893      1983225 
23204.332511342      1916710 
23436.375836456      1837200 
23670.73959482      1761595 
23907.446990769      1703840 
24146.521460676      1635290 
24387.986675283      1569915 
24631.866542036 1506923.3333333 
24878.185207456      1448340 
25126.967059531 1391946.6666667 
25378.236730126      1338715 
25632.019097427 1286923.3333333 
25888.339288402      1237315 
26147.222681286 1160643.3333333 
26408.694908098 1138876.6666667 
26672.781857179      1091325 
26939.509675751 1061003.3333333 
27208.904772509 1014294.6666667 
27480.993820234 962161.66666667 
27755.803758436     938083.5 
28033.361796021 905228.33333333 
28313.695413981 867112.66666667 
28596.832368121 819466.66666667 
28882.800691802 798320.33333333 
29171.62869872 766442.33333333 
29463.344985707 736011.66666667 
29757.978435564 706988.66666667 
30055.55821992 671148.33333333 
30356.113802119       647341 
30659.67494014 627673.66666667 
30966.271689541 604267.66666667 
31275.934406437       581696 
31588.693750501       560078 
31904.580688006     540114.6 
32223.626494886     516578.5 
32545.862759835       497332 
32871.321387434     470308.5 
33200.034601308       457026 
33532.034947321       441187 
33867.355296794       426552 
34206.028849762       407250 
34548.08913826       393316 
34893.570029642     380042.5 
35242.505729939     363174.5 
35594.930787238     347195.5 
35950.880095111     332119.5 
36310.388896062       321291 
36673.492785022     310764.5 
37040.227712872     294286.5 
37410.629990001     281313.5 
37784.736289901     273339.5 
38162.5836528       262154 
38544.209489328     251554.5 
38929.651584221     241152.5 
39318.948100064     231924.5 
39712.137581064     222374.5 
40109.258956875     209706.5 
40510.351546444     205566.5 
40915.455061908     197843.5 
41324.609612527       189448 
41737.855708653       183060 
42155.234265739     176399.5 
42576.786608396     169806.5 
43002.55447448     163711.5 
43432.580019225       156699 
43866.905819417 150410.33333333 
44305.574877612     144138.5 
44748.630626388       139132 
45196.116932652     134283.5 
45648.078101978       128495 
46104.558882998       120204 
46565.604471828       116916 
47031.260516546 113889.33333333 
47501.573121712     109237.5 
47976.588852929     105649.5 
48456.354741458 101375.06666667 
48940.918288873     97301.25 
49430.327471761 93442.533333333 
49924.630746479      89759.4 
50423.877053944      86237.4 
50928.115824483      81472.8 
51437.396982728 79611.666666667 
51951.770952555      76744.8 
52471.288662081 73869.566666667 
52996.001548702 70590.733333333 
53525.961564189     67990.85 
54061.221179831 65517.733333333 
54601.833391629      62692.2 
55147.851725545      60448.8 
55699.330242801 58312.033333333 
56256.323545229 55866.433333333 
56818.886780681 53498.966666667 
57387.075648488 51346.566666667 
57960.946404973      49266.6 
58540.555869022 46563.966666667 
59125.961427713 45163.933333333 
59717.22104199      43611.1 
60314.39325241      41914.8 
60917.537184934      40291.9 
61526.712556783 38746.266666667 
62141.979682351 37234.233333333 
62763.399479174      35705.7 
63391.033473966      34532.6 
64024.943808706 32991.242857143 
64665.193246793      31838.9 
65311.845179261     30687.65 
65964.963631053      29228.9 
66624.613267364        28188 
67290.859400038      27017.8 
67963.767994038     25933.05 
68643.405673978      25044.9 
69329.839730718      24190.6 
70023.138128025      23104.2 
70723.369509305     22078.05 
71430.603204399      21343.6 
72144.909236443     20643.15 
72866.358328807      19750.7 
73595.021912095      18874.5 
74330.972131216     17501.25 
75074.281852528     17289.85 
75825.024671053      16804.3 
76583.274917764      16283.9 
77349.107666942      15619.2 
78122.598743611      14988.2 
78903.824731047     14388.75 
79692.862978358     13818.95 
80489.791608141      13276.6 
81294.689524223     12749.05 
82107.636419465     12269.65 
82928.712783659      11802.4 
83757.999911496      11356.6 
84595.579910611 10829.566666667 
85441.535709717     10329.65 
86295.951066814     9919.055 
87158.910577482      9460.88 
88030.499683257      9245.81 
88910.80468009      8918.54 
89799.912726891 8527.9566666667 
90697.91185416     8157.275 
91604.890972701      7875.37 
92520.939882428       7538.9 
93446.149281253     7184.315 
94380.610774065     6980.205 
95324.416881806 6691.8966666667 
96277.661050624     6417.505 
97240.43766113      6157.86 
98212.842037741     5910.215 
99194.970458119     5721.465 
100186.9201627       5584.5 
199060.83304441      344.105 
399467.9878358      20.9069 
594753.39981818      4.05655 
793700.71765891      1.26687 
997811.18987739     0.513634 
1193529.3359837     0.245633 
1399507.0114645     0.131661 
