#  WAVELENGTH	        FLUX	
#  (ANGSTROM)	(ERG/CM2/S/A)	
############	############	
614.14037450653  4.67532E-25 
626.48459603412   1.4998E-24 
639.0769364144  4.63158E-24 
645.46770577855   1.3787E-23 
651.92238283633  3.21692E-23 
658.44160666469  6.62325E-23 
671.67628295866  1.81186E-22 
678.39304578824   4.8081E-22 
692.02874600859   1.2369E-21 
698.94903346867  3.07803E-21 
712.99790904139  8.20985E-21 
720.12788813181  1.94056E-20 
734.60245868325  4.12035E-20 
741.94848327009  9.29228E-20 
749.36796810279  2.04906E-19 
764.43026426165  4.42407E-19 
772.07456690427   9.3332E-19 
779.79531257331  1.93285E-18 
787.59326569905  3.88201E-18 
803.4238903396  7.76453E-18 
811.45812924299  1.52439E-17 
819.57271053542  2.92965E-17 
827.76843764078  5.53405E-17 
844.40658323736  1.02848E-16 
852.85064906973  1.88096E-16 
861.37915556043  3.38768E-16 
869.99294711603  5.99618E-16 
878.69287658719  1.05242E-15 
887.47980535306  1.81723E-15 
896.3546034066  3.09407E-15 
914.37133093507  1.22339E-11 
923.51504424442   4.9833E-11 
932.75019468686  7.28661E-11 
942.07769663373  1.09063E-10 
951.49847360007  1.78021E-10 
961.01345833607  3.22706E-10 
970.62359291943  4.30775E-10 
980.32982884862   7.1764E-10 
990.13312713711   1.10486E-9 
1000.0344584085   1.61737E-9 
1010.0348029926   2.41775E-9 
1020.1351510225   3.31127E-9 
1030.3365025327   6.34574E-9 
1040.639867558   9.09687E-9 
1051.0462662336   1.09913E-8 
1061.556728896   1.98329E-8 
1072.1722961849     2.764E-8 
1082.8940191468     4.077E-8 
1093.7229593382   5.13368E-8 
1104.6601889316  8.117045E-8 
1115.7067908209   1.59265E-7 
1126.8638587291   2.56091E-7 
1138.1324973164   3.63678E-7 
1149.5138222896   4.98834E-7 
1161.0089605125   6.54852E-7 
1172.6190501176   9.45821E-7 
1184.3452406188   1.37018E-6 
1196.188693025   1.59264E-6 
1208.1505799552   6.95542E-7 
1220.2320857548   2.47936E-6 
1232.4344066123   4.59519E-6 
1244.7587506785  6.922985E-6 
1257.2063381852   9.73288E-6 
1269.7784015671   1.25863E-5 
1282.4761855828   1.52678E-5 
1295.3009474386   2.00221E-5 
1308.253956913   2.64091E-5 
1321.3364964821     3.022E-5 
1334.5498614469   4.07061E-5 
1347.8953600614   5.89998E-5 
1361.374313662   6.86261E-5 
1374.9880567986   8.71422E-5 
1388.7379373666  0.000113552 
1402.6253167403  0.000170542 
1416.6515699077  0.000216284 
1430.8180856068 0.00033174029411765 
1445.1262664628 0.00039165107692308 
1459.5775291275   0.00058768 
1474.1733044187  0.000686685 
1488.9150374629   0.00106282 
1503.8041878376 0.0012616295454545 
1518.8422297159   0.00186711 
1534.0306520131  0.004370765 
1549.3709585332    0.0067429 
1564.8646681186  0.009648375 
1580.5133147997    0.0129875 
1596.3184479477    0.0131397 
1612.2816324272    0.0133868 
1628.4044487515     0.017692 
1644.688493239   0.02167685 
1661.1353781714 0.031173622727273 
1677.7467319531    0.0539998 
1694.5241992726    0.0766953 
1711.4694412654   0.10144865 
1728.584135678     0.157383 
1745.8699770348     0.185465 
1763.3286768051    0.2206545 
1780.9619635732    0.3576615 
1798.7715832089     0.479239 
1816.759299041     0.628773 
1834.9268920314    0.6747385 
1853.2761609517      0.83608 
1871.8089225613    1.1061075 
1890.5270117869      1.53689 
1909.4322819047     2.028985 
1928.5266047238     1.970465 
1947.811870771 3.7145572727273 
1967.2899894787 4.8994958823529 
1986.9628893735 5.3246633333333 
2006.8325182673      6.20657 
2026.9008434499     7.627185 
2047.1698518844      8.98607 
2067.6415504033    10.239022 
2088.3179659073      19.1633 
2109.2011455664      20.9849 
2130.293157022     25.44925 
2151.5960885923      26.9191 
2173.1120494782      27.6774 
2194.843169973      42.3057 
2216.7916016727      54.6691 
2238.9595176894     84.34905 
2261.3491128663     71.37985 
2283.962603995      96.9017 
2306.8022300349     161.9115 
2329.8702523353     177.6525 
2353.1689548586 141.54233333333 
2376.7006444072      253.305 
2400.4676508513     342.8395 
2424.4723273598      491.133 
2448.7170506334     612.7125 
2473.2042211397 488.23133333333 
2497.9362633511        588.6 
2522.9156259846 1257.2766666667 
2548.1447822445     1480.205 
2573.6262300669      1517.52 
2599.3624923676       2292.6 
2625.3561172913      4039.18 
2651.6096784642 4266.3733333333 
2678.1257752488      4204.38 
2704.9070330013 4978.5733333333 
2731.9561033313 5682.8833333333 
2759.2756643647 8495.8266666667 
2786.8684210083      7610.43 
2814.7371052184 9722.5933333333 
2842.8844762706      6396.06 
2871.3133210333      14517.6 
2900.0264542436      20283.5 
2929.026718786      22137.7 
2958.3169859739      22349.9 
2987.9001558336     24509.45 
3017.779157392      30099.5 
3047.9569489659        39323 
3078.4365184556      41890.6 
3109.2208836401     65698.95 
3140.3130924765     110436.7 
3171.7162234013      94762.9 
3203.4333856353    101465.65 
3235.4677194916       156495 
3267.8223966866       242161 
3300.5006206534     210220.5 
3333.50562686       192170 
3366.8406831286     137179.5 
3400.5090899598       178000 
3434.5141808594       174836 
3468.859322668     212389.5 
3503.5479158947     293804.5 
3538.5833950537       267888 
3573.9692290042       169694 
3609.7089212942       301203 
3645.8060105072 514829.66666667 
3682.2640706123     389109.5 
3719.0867113184       178985 
3756.2775784316     419967.5 
3793.8403542159     267922.5 
3831.778757758       251284 
3870.0965453356       323875 
3908.797510789     327287.5 
3947.8854858969       300140 
3987.3643407558     870837.5 
4027.2379841634     793246.5 
4067.510364005     887670.5 
4108.1854676451     836885.5 
4149.2673223215 797854.66666667 
4190.7599955447     647535.5 
4232.6675955002     835301.5 
4274.9942714552     769693.5 
4317.7442141697      1219025 
4360.9216563114      1241405 
4404.5308728746      1216185 
4448.5761816033 1459413.3333333 
4493.0619434193      1711775 
4537.9925628535      1780390 
4583.3724884821      1796600 
4629.2062133669      1833790 
4675.4982755006      1792730 
4722.2532582556      1757930 
4769.4757908381      1721020 
4817.1705487465      1919475 
4865.342254234 1840236.6666667 
4913.9956767763      1775520 
4963.1356335441 1482963.3333333 
5012.7669898795      1398440 
5062.8946597783      1312050 
5113.5236063761      1211755 
5164.6588424398      1114679 
5216.3054308642      1940565 
5268.4684851729 2011403.3333333 
5321.1531700246 2058023.3333333 
5374.3647017249      2030610 
5428.1083487421 2090886.6666667 
5482.3894322295 2129293.3333333 
5537.2133265518 2164446.6666667 
5592.5854598173      2222505 
5648.5113144155      2281660 
5704.9964275597 2346293.3333333 
5762.0463918353 2364313.3333333 
5819.6668557536 2414403.3333333 
5877.8635243112 1962546.6666667 
5936.6421595543 2391823.3333333 
5996.0085811498 2424656.6666667 
6055.9686669613 2400663.3333333 
6116.5283536309 2151016.6666667 
6177.6936371672      2279980 
6239.4705735389 2235843.3333333 
6301.8652792743 2241206.6666667 
6364.883932067 2295726.6666667 
6428.5327713877      2223615 
6492.8180991016 2331133.3333333 
6557.7462800926 2323986.6666667 
6623.3237428935      2300120 
6689.5569803225      2242805 
6756.4525501257 2233423.3333333 
6824.0170756269    2253292.5 
6892.2572463832      2251360 
6961.179818847      2239950 
7030.7916170355 2175833.3333333 
7101.0995332059    2068502.5 
7172.1105285379 2083763.3333333 
7243.8316338233      2145650 
7316.2699501615 2141243.3333333 
7389.4326496631    2132737.5 
7463.3269761598      2158170 
7537.9602459214      2142970 
7613.3398483806 2089486.6666667 
7689.4732468644    2069712.5 
7766.367979333      2087620 
7844.0316591264    2055897.5 
7922.4719757176    2004262.5 
8001.6966954748    2005182.5 
8081.7136624296      1979300 
8162.5307990539      1914120 
8244.1561070444    1941802.5 
8326.5976681148    1861752.5 
8409.863644796      1864970 
8493.9622812439    1750892.5 
8578.9019040564    1855512.5 
8664.6909230969      1758416 
8751.3378323279    1794732.5 
8838.8512106512      1808425 
8927.2397227577      1758042 
9016.5121199853    1765537.5 
9106.6772411851      1718444 
9197.744013597      1667690 
9289.721453733      1673010 
9382.6186682703      1624262 
9476.444854953      1623014 
9571.2093035025    1600782.5 
9666.9213965375      1568744 
9763.5906105029      1563818 
9861.226516608      1569324 
9959.838781774      1555414 
10059.437169592      1532720 
10160.031541288      1507145 
10261.631856701      1493385 
10364.248175268      1473895 
10467.89065702      1458340 
10572.56956359      1423110 
10678.295259226      1393190 
10785.078211819      1344700 
10892.928993937      1321980 
11001.858283876      1294770 
11111.876866715      1290420 
11222.995635382      1270800 
11335.225591736      1236360 
11448.577847653      1258615 
11563.06362613 1225023.3333333 
11678.694262391      1220455 
11795.481205015      1181320 
11913.436017065 1175633.3333333 
12032.570377236      1162055 
12152.896081008      1173330 
12274.425041818      1150450 
12397.169292236      1132640 
12521.140985159      1120350 
12646.35239501      1100390 
12772.81591896 1080926.6666667 
12900.54407815 1065296.6666667 
13029.549518932      1045685 
13159.845014121 1034893.3333333 
13291.443464262      1028205 
13424.357898905 1025166.6666667 
13558.601477894 999779.66666667 
13694.187492673 998580.66666667 
13831.129367599       979695 
13969.440661275       965014 
14109.135067888       933290 
14250.226418567 913555.66666667 
14392.728682753       907137 
14536.65596958 892955.83333333 
14682.022529276 874435.66666667 
14828.842754569 869259.33333333 
14977.131182115 833032.33333333 
15126.902493936       862452 
15278.171518875 859364.33333333 
15430.953234064 846920.66666667 
15585.262766404 835321.66666667 
15741.115394068 786505.66666667 
15898.526548009 804019.57142857 
16057.511813489       789348 
16218.086931624     784183.5 
16380.26780094       766887 
16544.07047895     757007.5 
16709.511183739       718486 
16876.606295577       717526 
17045.372358532     680404.5 
17215.826082118     651417.5 
17387.984342939       632421 
17561.864186368       619608 
17737.482828232       599507 
17914.857656514       577991 
18094.006233079       554679 
18274.94629541     523196.5 
18457.695758364       516962 
18642.272715948     493732.5 
18828.695443107     472801.5 
19016.982397539       465656 
19207.152221514     444391.5 
19399.223743729       426978 
19593.215981166     409934.5 
19789.148140978     397337.5 
19987.039622388       395155 
20186.910018612       374718 
20388.779118798       366432 
20592.666909986       351346 
20798.593579086     337179.5 
21006.579514877     329786.5 
21216.645310025       319483 
21428.811763126     310370.5 
21643.099880757       295037 
21859.530879564       281638 
22078.12618836       275937 
22298.907450244     266190.5 
22521.896524746       257410 
22747.115489993 241467.33333333 
22974.586644893       231220 
23204.332511342       211027 
23436.375836456       205841 
23670.73959482       192898 
23907.446990769     193906.5 
24146.521460676       182092 
24387.986675283     172293.5 
24631.866542036       169187 
24878.185207456       166800 
25126.967059531       158647 
25378.236730126       153714 
25632.019097427       150101 
25888.339288402     146676.5 
26147.222681286 142027.33333333 
26408.694908098 135155.33333333 
26672.781857179       134303 
26939.509675751 129387.66666667 
27208.904772509 125217.33333333 
27480.993820234 120515.33333333 
27755.803758436       116548 
28033.361796021 112498.66666667 
28313.695413981 109260.66666667 
28596.832368121 105416.33333333 
28882.800691802 101627.66666667 
29171.62869872 96260.266666667 
29463.344985707      93902.2 
29757.978435564 90223.433333333 
30055.55821992        87540 
30356.113802119 84034.533333333 
30659.67494014 80912.166666667 
30966.271689541 78228.633333333 
31275.934406437 75357.933333333 
31588.693750501      72966.5 
31904.580688006     70870.42 
32223.626494886        67614 
32545.862759835      65485.5 
32871.321387434      63054.3 
33200.034601308      60236.7 
33532.034947321      58618.1 
33867.355296794     56156.65 
34206.028849762      54185.7 
34548.08913826      52581.8 
34893.570029642     50914.35 
35242.505729939     48740.25 
35594.930787238      46510.1 
35950.880095111     44925.25 
36310.388896062      43129.3 
36673.492785022     41784.95 
37040.227712872     39980.05 
37410.629990001     38423.05 
37784.736289901     37128.55 
38162.5836528     35843.75 
38544.209489328     34271.65 
38929.651584221        33165 
39318.948100064      31757.8 
39712.137581064     30308.25 
40109.258956875     29375.75 
40510.351546444     28233.35 
40915.455061908     27280.75 
41324.609612527        26231 
41737.855708653      25123.5 
42155.234265739     24449.15 
42576.786608396     23170.15 
43002.55447448     21295.55 
43432.580019225      19846.2 
43866.905819417      18456.8 
44305.574877612      17262.3 
44748.630626388      16636.3 
45196.116932652      15865.5 
45648.078101978        15319 
46104.558882998     14806.65 
46565.604471828     14546.15 
47031.260516546      14067.1 
47501.573121712      13602.8 
47976.588852929      13233.3 
48456.354741458 12762.266666667 
48940.918288873     12312.15 
49430.327471761 11885.733333333 
49924.630746479      11426.2 
50423.877053944 11070.866666667 
50928.115824483      10691.9 
51437.396982728 10384.533333333 
51951.770952555     10033.09 
52471.288662081 9758.3566666667 
52996.001548702 9364.9766666667 
53525.961564189      9105.67 
54061.221179831      8810.39 
54601.833391629      8498.36 
55147.851725545      8285.35 
55699.330242801 8037.4633333333 
56256.323545229 7748.4366666667 
56818.886780681 7474.0166666667 
57387.075648488 7230.4166666667 
57960.946404973 6967.7866666667 
58540.555869022 6710.4233333333 
59125.961427713 6487.2466666667 
59717.22104199 6265.5033333333 
60314.39325241 6025.1466666667 
60917.537184934 5815.7333333333 
61526.712556783 5626.8866666667 
62141.979682351 5409.0066666667 
62763.399479174 5235.3666666667 
63391.033473966 5056.3166666667 
64024.943808706      4836.83 
64665.193246793      4666.72 
65311.845179261     4511.575 
65964.963631053      4303.67 
66624.613267364       4155.6 
67290.859400038      4014.85 
67963.767994038     3837.795 
68643.405673978      3713.02 
69329.839730718     3592.175 
70023.138128025      3432.55 
70723.369509305      3290.24 
71430.603204399      3185.44 
72144.909236443       3082.6 
72866.358328807     2954.045 
73595.021912095      2828.91 
74330.972131216       2713.3 
75074.281852528       2591.7 
75825.024671053      2496.12 
76583.274917764      2404.61 
77349.107666942      2291.74 
78122.598743611      2190.27 
78903.824731047      2099.45 
79692.862978358      2016.18 
80489.791608141     1941.905 
81294.689524223     1876.015 
82107.636419465     1811.295 
82928.712783659      1744.77 
83757.999911496      1681.39 
84595.579910611 1607.7833333333 
85441.535709717     1537.255 
86295.951066814     1481.795 
87158.910577482     1431.445 
88030.499683257      1380.07 
88910.80468009     1334.005 
89799.912726891 1278.8233333333 
90697.91185416     1224.385 
91604.890972701     1185.445 
92520.939882428 1138.5033333333 
93446.149281253     1092.205 
94380.610774065     1057.795 
95324.416881806 1017.5033333333 
96277.661050624      977.184 
97240.43766113      939.181 
98212.842037741     903.6615 
99194.970458119     875.9215 
100186.9201627      856.834 
199060.83304441      55.9209 
399467.9878358       3.5434 
594753.39981818     0.701985 
793700.71765891     0.221977 
997811.18987739     0.090713 
1193529.3359837    0.0436117 
1399507.0114645    0.0234611 
