#  WAVELENGTH	        FLUX	
#  (ANGSTROM)	(ERG/CM2/S/A)	
############	############	
271.59076557974  1.89583E-23 
277.04973996789  9.15278E-23 
282.61843974125  3.93022E-22 
288.29907038004  1.74698E-21 
294.09388169468  7.24128E-21 
300.00516871675  2.28048E-20 
306.03527260795  1.07129E-19 
315.30844740325  8.69626E-19 
324.86260866801  6.25373E-18 
334.70627057326  4.01317E-17 
344.8482052779  2.33105E-16 
355.29745074603  1.07856E-15 
362.43892950602  4.51718E-15 
373.42119150899  1.76041E-14 
384.7362270329    7.483E-14 
392.46942519626  2.94551E-13 
404.36164124913  1.09426E-12 
412.48931023824  3.37965E-12 
420.78034537403  8.85935E-12 
429.23803031605  2.22187E-11 
437.8657147254  7.62426E-11 
446.66681559138  2.20814E-10 
455.64481858477  5.53807E-10 
469.4513122327   1.47478E-9 
478.88728360858   3.78644E-9 
488.51291800911   9.36507E-9 
498.3320276611    2.2316E-8 
503.31534793771   7.40994E-8 
508.34850141708   1.46226E-7 
518.56630629557   2.67821E-7 
528.98948905211   5.57734E-7 
539.62217778206   1.12005E-6 
545.01839955988   2.23996E-6 
555.97326939103   4.33287E-6 
567.14833210579   8.18799E-6 
578.54801358112   1.48911E-5 
584.33349371693   2.73051E-5 
596.07859694064   4.84267E-5 
608.05977673914   8.47981E-5 
614.14037450653  0.000145067 
626.48459603412  0.000244395 
639.0769364144   0.00040308 
645.46770577855  0.000660904 
651.92238283633  0.000968009 
658.44160666469   0.00133714 
671.67628295866   0.00210696 
678.39304578824   0.00327886 
692.02874600859    0.0050462 
698.94903346867   0.00761533 
712.99790904139    0.0119305 
720.12788813181    0.0176709 
734.60245868325    0.0249082 
741.94848327009     0.036113 
749.36796810279    0.0518926 
764.43026426165    0.0738494 
772.07456690427     0.104227 
779.79531257331     0.145826 
787.59326569905     0.200965 
803.4238903396     0.276496 
811.45812924299     0.377957 
819.57271053542     0.511059 
827.76843764078     0.683785 
844.40658323736     0.914514 
852.85064906973       1.2106 
861.37915556043      1.59262 
869.99294711603       2.0749 
878.69287658719      2.70018 
887.47980535306       3.4835 
896.3546034066       4.4509 
914.37133093507      394.872 
923.51504424442      2615.59 
932.75019468686      3537.43 
942.07769663373      5012.11 
951.49847360007       7641.8 
961.01345833607      9788.97 
970.62359291943      9523.81 
980.32982884862      12695.6 
990.13312713711      13394.5 
1000.0344584085      17015.1 
1010.0348029926      20361.7 
1020.1351510225      19344.2 
1030.3365025327      25781.1 
1040.639867558      31318.1 
1051.0462662336      36582.2 
1061.556728896      38625.6 
1072.1722961849      46027.4 
1082.8940191468      52511.3 
1093.7229593382      55100.7 
1104.6601889316     479047.5 
1115.7067908209      1346360 
1126.8638587291      2483620 
1138.1324973164      2323360 
1149.5138222896      3245640 
1161.0089605125      3847720 
1172.6190501176      3389840 
1184.3452406188      1338309 
1196.188693025       255186 
1208.1505799552      47811.5 
1220.2320857548       253911 
1232.4344066123       977551 
1244.7587506785     21600930 
1257.2063381852     19562700 
1269.7784015671     57824900 
1282.4761855828     76476450 
1295.3009474386     16646000 
1308.253956913     70031200 
1321.3364964821     98756100 
1334.5498614469     91834400 
1347.8953600614    115509000 
1361.374313662     91294000 
1374.9880567986    104180000 
1388.7379373666    107315000 
1402.6253167403    105555000 
1416.6515699077    124578000 
1430.8180856068 117129823.52941 
1445.1262664628 143458461.53846 
1459.5775291275    127594000 
1474.1733044187    132420000 
1488.9150374629    159853000 
1503.8041878376 143887681.81818 
1518.8422297159    118987000 
1534.0306520131    123183500 
1549.3709585332    116444000 
1564.8646681186    108974500 
1580.5133147997    143468500 
1596.3184479477    135565000 
1612.2816324272    126515000 
1628.4044487515    126475000 
1644.688493239    123075500 
1661.1353781714 107079136.36364 
1677.7467319531    147880000 
1694.5241992726    130509000 
1711.4694412654    114307000 
1728.584135678    128425500 
1745.8699770348    151584000 
1763.3286768051    124215000 
1780.9619635732    145584000 
1798.7715832089    147675500 
1816.759299041    138731000 
1834.9268920314    124609000 
1853.2761609517    125245500 
1871.8089225613    135874000 
1890.5270117869    128877000 
1909.4322819047    133697500 
1928.5266047238    136259500 
1947.811870771 143912454.54545 
1967.2899894787 148792823.52941 
1986.9628893735 136641238.09524 
2006.8325182673    128941000 
2026.9008434499    135478000 
2047.1698518844    127463500 
2067.6415504033    140847550 
2088.3179659073    128861000 
2109.2011455664    127533000 
2130.293157022    111818000 
2151.5960885923    121838000 
2173.1120494782    113366000 
2194.843169973    112649000 
2216.7916016727    103096750 
2238.9595176894     94449450 
2261.3491128663     99674700 
2283.962603995 101026633.33333 
2306.8022300349     86849450 
2329.8702523353     72236050 
2353.1689548586 76236933.333333 
2376.7006444072     67728200 
2400.4676508513     70566500 
2424.4723273598 82860733.333333 
2448.7170506334     82203400 
2473.2042211397 81246466.666667 
2497.9362633511 85722426.086957 
2522.9156259846 73405644.444444 
2548.1447822445     78723400 
2573.6262300669 82831533.333333 
2599.3624923676 76453066.666667 
2625.3561172913     90434500 
2651.6096784642     89710800 
2678.1257752488     84599050 
2704.9070330013 84344933.333333 
2731.9561033313     77695400 
2759.2756643647 80539666.666667 
2786.8684210083     59092050 
2814.7371052184     87120000 
2842.8844762706     81454100 
2871.3133210333 80946833.333333 
2900.0264542436     90391000 
2929.026718786     85341300 
2958.3169859739     87719600 
2987.9001558336     89705100 
3017.779157392     88728100 
3047.9569489659     86313550 
3078.4365184556     87683300 
3109.2208836401     83599800 
3140.3130924765     84559350 
3171.7162234013     80043400 
3203.4333856353     81062550 
3235.4677194916     80706800 
3267.8223966866     80640750 
3300.5006206534     79977600 
3333.50562686     77477800 
3366.8406831286     76678850 
3400.5090899598     77595900 
3434.5141808594     76501300 
3468.859322668     74646850 
3503.5479158947     75334850 
3538.5833950537     74398750 
3573.9692290042     72966200 
3609.7089212942     72051100 
3645.8060105072 72639333.333333 
3682.2640706123     74235500 
3719.0867113184    108331100 
3756.2775784316    143811500 
3793.8403542159    156001500 
3831.778757758    184889500 
3870.0965453356    128011000 
3908.797510789    183164000 
3947.8854858969    151485500 
3987.3643407558    178465000 
4027.2379841634    174962500 
4067.510364005    161825000 
4108.1854676451    140766500 
4149.2673223215 160515666.66667 
4190.7599955447    155268000 
4232.6675955002    149058500 
4274.9942714552    145049000 
4317.7442141697    114506000 
4360.9216563114    137172000 
4404.5308728746    134328500 
4448.5761816033 130373333.33333 
4493.0619434193    126356000 
4537.9925628535    122523500 
4583.3724884821    120342000 
4629.2062133669 116666333.33333 
4675.4982755006    112192500 
4722.2532582556    110899000 
4769.4757908381 107666666.66667 
4817.1705487465     96701250 
4865.342254234     90752700 
4913.9956767763     97048650 
4963.1356335441 93974433.333333 
5012.7669898795     90124650 
5062.8946597783     88135100 
5113.5236063761     85108100 
5164.6588424398     82024900 
5216.3054308642     79740150 
5268.4684851729 77440966.666667 
5321.1531700246     75649800 
5374.3647017249     73361200 
5428.1083487421 71604333.333333 
5482.3894322295     69336600 
5537.2133265518 67275433.333333 
5592.5854598173     65772350 
5648.5113144155     63690300 
5704.9964275597 61886466.666667 
5762.0463918353 59782333.333333 
5819.6668557536 57871233.333333 
5877.8635243112 55966233.333333 
5936.6421595543 54084966.666667 
5996.0085811498 52609066.666667 
6055.9686669613     50983500 
6116.5283536309 49117033.333333 
6177.6936371672 47928733.333333 
6239.4705735389 46287333.333333 
6301.8652792743     44789100 
6364.883932067 43502166.666667 
6428.5327713877     42022450 
6492.8180991016 39335566.666667 
6557.7462800926 35856433.333333 
6623.3237428935 38406333.333333 
6689.5569803225     37170800 
6756.4525501257 35982166.666667 
6824.0170756269     34777100 
6892.2572463832     33646700 
6961.179818847     32577825 
7030.7916170355 31541366.666667 
7101.0995332059     30497975 
7172.1105285379     29591500 
7243.8316338233     28656075 
7316.2699501615     27827100 
7389.4326496631     26903950 
7463.3269761598     25941075 
7537.9602459214     25159475 
7613.3398483806 24385833.333333 
7689.4732468644     23666775 
7766.367979333     22768600 
7844.0316591264     22014325 
7922.4719757176     21282525 
8001.6966954748     20713150 
8081.7136624296     20045375 
8162.5307990539     19313900 
8244.1561070444     18895125 
8326.5976681148     18245800 
8409.863644796     17487740 
8493.9622812439     17040850 
8578.9019040564     17351000 
8664.6909230969     16661260 
8751.3378323279     17879075 
8838.8512106512     16151325 
8927.2397227577     16361380 
9016.5121199853     15861925 
9106.6772411851     15936920 
9197.744013597     13856900 
9289.721453733     14973840 
9382.6186682703     14363360 
9476.444854953     12910280 
9571.2093035025     13356975 
9666.9213965375     13025000 
9763.5906105029     12565820 
9861.226516608     12101620 
9959.838781774 11406893.333333 
10059.437169592     10707350 
10160.031541288     10938100 
10261.631856701     10577900 
10364.248175268     10220750 
10467.89065702      9834300 
10572.56956359 9426646.6666667 
10678.295259226      9050750 
10785.078211819      8750385 
10892.928993937      7838100 
11001.858283876      8228250 
11111.876866715      7972875 
11222.995635382      7599460 
11335.225591736      7352650 
11448.577847653      7139990 
11563.06362613 6836363.3333333 
11678.694262391      6572650 
11795.481205015      6379045 
11913.436017065 6164123.3333333 
12032.570377236      5933760 
12152.896081008      5765145 
12274.425041818 5552066.6666667 
12397.169292236      5349795 
12521.140985159      5159290 
12646.35239501      4985515 
12772.81591896 4583226.6666667 
12900.54407815 4615593.3333333 
13029.549518932      4459575 
13159.845014121 4302913.3333333 
13291.443464262      4163580 
13424.357898905      4019180 
13558.601477894      3858370 
13694.187492673      3708960 
13831.129367599      3592190 
13969.440661275      3478150 
14109.135067888      3345300 
14250.226418567      3219170 
14392.728682753 3087803.3333333 
14536.65596958 2987640.6666667 
14682.022529276 2879706.6666667 
14828.842754569 2776776.6666667 
14977.131182115 2673176.6666667 
15126.902493936      2575110 
15278.171518875 2472543.3333333 
15430.953234064      2388280 
15585.262766404 2310376.6666667 
15741.115394068      2236800 
15898.526548009 2213115.7142857 
16057.511813489      2046560 
16218.086931624      2082550 
16380.26780094      1911900 
16544.07047895      1966135 
16709.511183739      1803360 
16876.606295577      1816370 
17045.372358532      1759225 
17215.826082118      1619565 
17387.984342939      1603350 
17561.864186368      1559780 
17737.482828232      1511980 
17914.857656514      1448590 
18094.006233079      1335095 
18274.94629541      1336465 
18457.695758364      1293750 
18642.272715948      1212700 
18828.695443107      1204610 
19016.982397539      1161915 
19207.152221514      1114805 
19399.223743729      1033995 
19593.215981166      1033970 
19789.148140978     995496.5 
19987.039622388     958673.5 
20186.910018612     923374.5 
20388.779118798       889889 
20592.666909986       857600 
20798.593579086       827111 
21006.579514877       797265 
21216.645310025     768801.5 
21428.811763126       741625 
21643.099880757       693125 
21859.530879564       681010 
22078.12618836       657890 
22298.907450244       636116 
22521.896524746     614928.5 
22747.115489993 590276.33333333 
22974.586644893       566765 
23204.332511342       548662 
23436.375836456       527014 
23670.73959482       506204 
23907.446990769       489957 
24146.521460676       470828 
24387.986675283     452622.5 
24631.866542036       435801 
24878.185207456       417500 
25126.967059531 402492.33333333 
25378.236730126     391861.5 
25632.019097427       372976 
25888.339288402     363462.5 
26147.222681286 336991.66666667 
26408.694908098 337344.66666667 
26672.781857179     314849.5 
26939.509675751       315395 
27208.904772509 302045.66666667 
27480.993820234 281928.66666667 
27755.803758436     280079.5 
28033.361796021 270628.33333333 
28313.695413981 259734.66666667 
28596.832368121 242587.66666667 
28882.800691802       239600 
29171.62869872 230449.66666667 
29463.344985707 221625.66666667 
29757.978435564       213187 
30055.55821992       201513 
30356.113802119 195436.33333333 
30659.67494014       190077 
30966.271689541       183172 
31275.934406437 176532.33333333 
31588.693750501       170192 
31904.580688006       164326 
32223.626494886       157406 
32545.862759835       151824 
32871.321387434       142925 
33200.034601308     139637.5 
33532.034947321       134867 
33867.355296794     130401.5 
34206.028849762       124698 
34548.08913826       120589 
34893.570029642       116653 
35242.505729939       111634 
35594.930787238     106903.5 
35950.880095111     102387.5 
36310.388896062      98912.6 
36673.492785022      95931.9 
37040.227712872      91551.8 
37410.629990001      87111.9 
37784.736289901     84743.05 
38162.5836528     81500.95 
38544.209489328     78517.45 
38929.651584221     74683.55 
39318.948100064     72785.15 
39712.137581064     69490.85 
40109.258956875     65446.05 
40510.351546444      64769.7 
40915.455061908     62436.45 
41324.609612527     58969.35 
41737.855708653     57844.05 
42155.234265739     55831.85 
42576.786608396     53824.45 
43002.55447448      51905.6 
43432.580019225      49213.3 
43866.905819417 47748.266666667 
44305.574877612     45868.25 
44748.630626388        44263 
45196.116932652      42754.5 
45648.078101978 40964.833333333 
46104.558882998      38461.1 
46565.604471828      37088.4 
47031.260516546      36426.2 
47501.573121712     34970.95 
47976.588852929      33853.8 
48456.354741458      32514.3 
48940.918288873      31236.3 
49430.327471761      30028.7 
49924.630746479     28856.15 
50423.877053944 27758.666666667 
50928.115824483     26147.25 
51437.396982728 25677.533333333 
51951.770952555     24804.75 
52471.288662081      23831.8 
52996.001548702 22897.566666667 
53525.961564189        21900 
54061.221179831 21286.566666667 
54601.833391629 20359.133333333 
55147.851725545      19504.4 
55699.330242801      18995.9 
56256.323545229 18217.666666667 
56818.886780681 17302.666666667 
57387.075648488      16773.3 
57960.946404973 16098.066666667 
58540.555869022 15219.333333333 
59125.961427713 14656.566666667 
59717.22104199 14281.333333333 
60314.39325241      13741.7 
60917.537184934 13221.366666667 
61526.712556783 12724.433333333 
62141.979682351 12232.833333333 
62763.399479174 11626.566666667 
63391.033473966      11376.9 
64024.943808706      10888.3 
64665.193246793      10510.1 
65311.845179261     10138.15 
65964.963631053     9662.025 
66624.613267364      9323.01 
67290.859400038      8882.31 
67963.767994038     8585.775 
68643.405673978       8307.7 
69329.839730718      8017.32 
70023.138128025     7673.535 
70723.369509305     7327.395 
71430.603204399      7100.61 
72144.909236443      6856.18 
72866.358328807     6576.665 
73595.021912095      6291.13 
74330.972131216      5830.89 
75074.281852528      5770.93 
75825.024671053      5614.18 
76583.274917764     5443.675 
77349.107666942      5192.03 
78122.598743611     5014.195 
78903.824731047     4821.265 
79692.862978358     4633.395 
80489.791608141     4453.975 
81294.689524223         4245 
82107.636419465     4122.535 
82928.712783659      3967.86 
83757.999911496     3820.225 
84595.579910611 3646.1966666667 
85441.535709717      3478.69 
86295.951066814     3314.475 
87158.910577482      3185.25 
88030.499683257     3120.645 
88910.80468009     3012.285 
89799.912726891 2881.4966666667 
90697.91185416     2758.995 
91604.890972701     2664.685 
92520.939882428 2549.1266666667 
93446.149281253     2411.155 
94380.610774065      2363.24 
95324.416881806 2268.1066666667 
96277.661050624     2178.555 
97240.43766113 2090.2333333333 
98212.842037741     2003.975 
99194.970458119      1945.52 
100186.9201627      1899.63 
199060.83304441      120.667 
399467.9878358      7.44771 
594753.39981818      1.45271 
793700.71765891     0.454809 
997811.18987739     0.184662 
1193529.3359837    0.0883956 
1399507.0114645    0.0474104 
