#  WAVELENGTH	        FLUX	
#  (ANGSTROM)	(ERG/CM2/S/A)	
############	############	
749.36796810279  3.67237E-25 
764.43026426165  9.56977E-25 
772.07456690427  2.42494E-24 
779.79531257331  6.00358E-24 
787.59326569905  1.43575E-23 
803.4238903396  3.40219E-23 
811.45812924299  7.88085E-23 
819.57271053542  1.78013E-22 
827.76843764078  3.93711E-22 
844.40658323736  8.53101E-22 
852.85064906973   1.8102E-21 
861.37915556043  3.76839E-21 
869.99294711603  7.68344E-21 
878.69287658719  1.54824E-20 
887.47980535306  3.06346E-20 
896.3546034066   5.9415E-20 
914.37133093507  4.42383E-16 
923.51504424442    2.655E-15 
932.75019468686  4.02894E-15 
942.07769663373   6.6312E-15 
951.49847360007  9.20609E-15 
961.01345833607  1.85439E-14 
970.62359291943  2.64842E-14 
980.32982884862  5.06565E-14 
990.13312713711  9.19502E-14 
1000.0344584085   1.3735E-13 
1010.0348029926  2.24793E-13 
1020.1351510225  3.55419E-13 
1030.3365025327  7.37196E-13 
1040.639867558  1.16221E-12 
1051.0462662336  1.52442E-12 
1061.556728896  3.35237E-12 
1072.1722961849  5.04482E-12 
1082.8940191468  8.83276E-12 
1093.7229593382  1.25336E-11 
1104.6601889316 2.348225E-11 
1115.7067908209   5.7848E-11 
1126.8638587291  1.04185E-10 
1138.1324973164  1.68184E-10 
1149.5138222896  2.53339E-10 
1161.0089605125  3.57877E-10 
1172.6190501176  5.83696E-10 
1184.3452406188  9.82347E-10 
1196.188693025   1.26792E-9 
1208.1505799552   2.6168E-10 
1220.2320857548   2.21777E-9 
1232.4344066123    4.8874E-9 
1244.7587506785  8.602435E-9 
1257.2063381852   1.30912E-8 
1269.7784015671   1.83952E-8 
1282.4761855828   2.36627E-8 
1295.3009474386    3.4591E-8 
1308.253956913   4.91929E-8 
1321.3364964821   5.71569E-8 
1334.5498614469  8.123745E-8 
1347.8953600614   1.31035E-7 
1361.374313662   1.47906E-7 
1374.9880567986   1.92328E-7 
1388.7379373666   2.58733E-7 
1402.6253167403  4.294005E-7 
1416.6515699077   5.64161E-7 
1430.8180856068 9.5516823529412E-7 
1445.1262664628 1.1422115384615E-6 
1459.5775291275   1.83694E-6 
1474.1733044187   2.11415E-6 
1488.9150374629    3.7686E-6 
1503.8041878376   4.84929E-6 
1518.8422297159   7.70266E-6 
1534.0306520131   8.87968E-6 
1549.3709585332   1.17608E-5 
1564.8646681186   1.52919E-5 
1580.5133147997  2.222945E-5 
1596.3184479477   2.52009E-5 
1612.2816324272  2.953345E-5 
1628.4044487515   3.99219E-5 
1644.688493239  5.090835E-5 
1661.1353781714 7.6487268181818E-5 
1677.7467319531   0.00011755 
1694.5241992726 0.0001675095 
1711.4694412654  0.000234892 
1728.584135678  0.000368839 
1745.8699770348  0.000444733 
1763.3286768051  0.000547979 
1780.9619635732  0.000867025 
1798.7715832089  0.001172655 
1816.759299041   0.00159928 
1834.9268920314  0.001909055 
1853.2761609517  0.002500855 
1871.8089225613  0.003402925 
1890.5270117869  0.004921855 
1909.4322819047  0.006706145 
1928.5266047238   0.00726108 
1947.811870771 0.012687363636364 
1967.2899894787 0.016891105882353 
1986.9628893735 0.020371366666667 
2006.8325182673    0.0259958 
2026.9008434499    0.0339425 
2047.1698518844    0.0419066 
2067.6415504033   0.05031448 
2088.3179659073      0.07932 
2109.2011455664   0.10068775 
2130.293157022     0.120413 
2151.5960885923     0.137675 
2173.1120494782    0.1535395 
2194.843169973 0.22287833333333 
2216.7916016727     0.281823 
2238.9595176894     0.410269 
2261.3491128663    0.4201625 
2283.962603995     0.561804 
2306.8022300349     0.953082 
2329.8702523353    1.0805265 
2353.1689548586 1.0006116666667 
2376.7006444072      1.74261 
2400.4676508513     2.475335 
2424.4723273598 3.6509066666667 
2448.7170506334     4.918605 
2473.2042211397      4.46721 
2497.9362633511 5.3961704347826 
2522.9156259846 15.353435185185 
2548.1447822445      15.3851 
2573.6262300669 15.488333333333 
2599.3624923676      24.9579 
2625.3561172913      48.8527 
2651.6096784642 54.545233333333 
2678.1257752488      50.4068 
2704.9070330013 76.001366666667 
2731.9561033313 91.042666666667 
2759.2756643647 164.20466666667 
2786.8684210083      203.161 
2814.7371052184 180.43533333333 
2842.8844762706 118.15603333333 
2871.3133210333 368.60233333333 
2900.0264542436      602.415 
2929.026718786     660.3635 
2958.3169859739      627.223 
2987.9001558336     862.1285 
3017.779157392      1156.43 
3047.9569489659       1459.5 
3078.4365184556      1501.26 
3109.2208836401     2244.515 
3140.3130924765     4074.985 
3171.7162234013      3997.52 
3203.4333856353      5616.55 
3235.4677194916      8224.42 
3267.8223966866     12928.85 
3300.5006206534      14683.6 
3333.50562686      15945.4 
3366.8406831286     14090.65 
3400.5090899598      19046.6 
3434.5141808594      17019.6 
3468.859322668     20305.75 
3503.5479158947      31346.3 
3538.5833950537      34034.5 
3573.9692290042      18471.9 
3609.7089212942     37732.86 
3645.8060105072      64680.5 
3682.2640706123     51161.25 
3719.0867113184      23940.4 
3756.2775784316     69818.35 
3793.8403542159      48127.8 
3831.778757758     48645.95 
3870.0965453356      50603.8 
3908.797510789     49717.65 
3947.8854858969     41912.95 
3987.3643407558       134148 
4027.2379841634     124699.5 
4067.510364005     150340.5 
4108.1854676451     131282.5 
4149.2673223215       134257 
4190.7599955447     58809.25 
4232.6675955002      96520.8 
4274.9942714552       103397 
4317.7442141697     147418.5 
4360.9216563114       142292 
4404.5308728746     120631.5 
4448.5761816033       115585 
4493.0619434193     116106.5 
4537.9925628535       129699 
4583.3724884821     96920.95 
4629.2062133669 88270.866666667 
4675.4982755006     96541.55 
4722.2532582556     110664.5 
4769.4757908381 61004.233333333 
4817.1705487465      75582.3 
4865.342254234 115948.63333333 
4913.9956767763     168329.5 
4963.1356335441 61472.066666667 
5012.7669898795      81027.3 
5062.8946597783 124055.66666667 
5113.5236063761       153119 
5164.6588424398      88423.9 
5216.3054308642     147739.5 
5268.4684851729       172271 
5321.1531700246 183961.33333333 
5374.3647017249       200464 
5428.1083487421 153307.33333333 
5482.3894322295 128917.66666667 
5537.2133265518 165579.66666667 
5592.5854598173     94765.45 
5648.5113144155 114864.66666667 
5704.9964275597 160449.33333333 
5762.0463918353 170520.66666667 
5819.6668557536 155025.33333333 
5877.8635243112 90884.966666667 
5936.6421595543 110161.33333333 
5996.0085811498 151954.66666667 
6055.9686669613 213968.33333333 
6116.5283536309 198011.33333333 
6177.6936371672 100470.56666667 
6239.4705735389     115819.6 
6301.8652792743 166647.33333333 
6364.883932067       193348 
6428.5327713877    199796.25 
6492.8180991016 236168.33333333 
6557.7462800926 228148.33333333 
6623.3237428935 182772.66666667 
6689.5569803225    126424.75 
6756.4525501257 136591.66666667 
6824.0170756269       174521 
6892.2572463832 249647.66666667 
6961.179818847     377014.5 
7030.7916170355 250274.66666667 
7101.0995332059     139422.5 
7172.1105285379 176473.66666667 
7243.8316338233     302954.5 
7316.2699501615       483979 
7389.4326496631    645533.25 
7463.3269761598       734128 
7537.9602459214       664564 
7613.3398483806 418401.33333333 
7689.4732468644       326636 
7766.367979333    344890.75 
7844.0316591264    416266.25 
7922.4719757176     510441.5 
8001.6966954748    615731.75 
8081.7136624296     715793.5 
8162.5307990539       659280 
8244.1561070444       592654 
8326.5976681148     553071.5 
8409.863644796     492545.8 
8493.9622812439       484753 
8578.9019040564    591186.25 
8664.6909230969     667303.2 
8751.3378323279    738852.75 
8838.8512106512       537034 
8927.2397227577     520185.4 
9016.5121199853       612270 
9106.6772411851     700557.4 
9197.744013597    699788.25 
9289.721453733     679497.6 
9382.6186682703     694825.4 
9476.444854953     720205.8 
9571.2093035025       731403 
9666.9213965375     704689.2 
9763.5906105029       660369 
9861.226516608       666586 
9959.838781774 678458.73333333 
10059.437169592       689463 
10160.031541288     699838.5 
10261.631856701       707639 
10364.248175268       714879 
10467.89065702     717920.5 
10572.56956359       715006 
10678.295259226     708860.5 
10785.078211819       693699 
10892.928993937       687583 
11001.858283876       661528 
11111.876866715       655030 
11222.995635382 654717.66666667 
11335.225591736       640688 
11448.577847653       656700 
11563.06362613 645239.33333333 
11678.694262391       641307 
11795.481205015     631821.5 
11913.436017065 630773.33333333 
12032.570377236     630556.5 
12152.896081008     631235.5 
12274.425041818 623374.66666667 
12397.169292236     611441.5 
12521.140985159 605452.66666667 
12646.35239501     599472.5 
12772.81591896 592594.66666667 
12900.54407815 589763.66666667 
13029.549518932       579650 
13159.845014121 575270.66666667 
13291.443464262       528699 
13424.357898905       509476 
13558.601477894 505006.33333333 
13694.187492673 512315.66666667 
13831.129367599       475519 
13969.440661275 469966.66666667 
14109.135067888       456754 
14250.226418567 449687.66666667 
14392.728682753 452368.66666667 
14536.65596958 433555.43333333 
14682.022529276 434228.66666667 
14828.842754569       442433 
14977.131182115 435292.66666667 
15126.902493936 450299.33333333 
15278.171518875 446116.33333333 
15430.953234064       453560 
15585.262766404 460147.33333333 
15741.115394068       453815 
15898.526548009 468753.14285714 
16057.511813489       470108 
16218.086931624       469992 
16380.26780094       472956 
16544.07047895     475704.5 
16709.511183739     458348.5 
16876.606295577       452884 
17045.372358532       422989 
17215.826082118       395440 
17387.984342939     366875.5 
17561.864186368       344764 
17737.482828232     319968.5 
17914.857656514     298402.5 
18094.006233079     281915.5 
18274.94629541       264254 
18457.695758364       245404 
18642.272715948       240557 
18828.695443107     243099.5 
19016.982397539     241272.5 
19207.152221514       233041 
19399.223743729       227742 
19593.215981166     219481.5 
19789.148140978     205719.5 
19987.039622388     202235.5 
20186.910018612       195119 
20388.779118798     191665.5 
20592.666909986     186185.5 
20798.593579086       182122 
21006.579514877     182121.5 
21216.645310025     181078.5 
21428.811763126     181054.5 
21643.099880757       180672 
21859.530879564     176540.5 
22078.12618836       177675 
22298.907450244     175826.5 
22521.896524746       172035 
22747.115489993 162141.33333333 
22974.586644893       152663 
23204.332511342       135663 
23436.375836456       130046 
23670.73959482     121154.5 
23907.446990769     114640.5 
24146.521460676 102717.33333333 
24387.986675283      92430.5 
24631.866542036 85296.366666667 
24878.185207456      80158.8 
25126.967059531 73151.666666667 
25378.236730126     71582.05 
25632.019097427 69012.633333333 
25888.339288402     68945.05 
26147.222681286      70208.7 
26408.694908098 68618.066666667 
26672.781857179      67140.3 
26939.509675751 63230.833333333 
27208.904772509 58869.333333333 
27480.993820234 55783.366666667 
27755.803758436      53513.7 
28033.361796021      49969.7 
28313.695413981 49059.233333333 
28596.832368121      47794.4 
28882.800691802      46507.9 
29171.62869872 43217.266666667 
29463.344985707        42740 
29757.978435564      40594.8 
30055.55821992 40367.533333333 
30356.113802119 39032.766666667 
30659.67494014      37557.8 
30966.271689541 37206.233333333 
31275.934406437      35963.4 
31588.693750501      35814.4 
31904.580688006        35121 
32223.626494886      34619.4 
32545.862759835        34147 
32871.321387434      33851.8 
33200.034601308     33201.55 
33532.034947321      33075.5 
33867.355296794     32433.65 
34206.028849762     32066.85 
34548.08913826      32107.2 
34893.570029642      31210.3 
35242.505729939      30616.6 
35594.930787238     29881.05 
35950.880095111     29418.35 
36310.388896062      28761.3 
36673.492785022     28349.45 
37040.227712872     27564.25 
37410.629990001     27002.45 
37784.736289901     26484.85 
38162.5836528      25540.4 
38544.209489328     24832.15 
38929.651584221      23988.8 
39318.948100064     23121.65 
39712.137581064     21625.55 
40109.258956875      20599.1 
40510.351546444     19289.35 
40915.455061908      18573.4 
41324.609612527     17781.05 
41737.855708653      17146.7 
42155.234265739     16531.35 
42576.786608396     15738.85 
43002.55447448     14635.85 
43432.580019225     13692.75 
43866.905819417 12803.933333333 
44305.574877612      12062.8 
44748.630626388      11602.3 
45196.116932652     11128.75 
45648.078101978      10682.6 
46104.558882998      10301.3 
46565.604471828     10026.53 
47031.260516546 9733.0333333333 
47501.573121712     9328.265 
47976.588852929     9072.455 
48456.354741458 8675.4033333333 
48940.918288873     8445.755 
49430.327471761 8095.3133333333 
49924.630746479     7699.435 
50423.877053944 7458.9066666667 
50928.115824483      7184.54 
51437.396982728      6916.85 
51951.770952555      6722.76 
52471.288662081 6449.3433333333 
52996.001548702 6208.4733333333 
53525.961564189     6033.355 
54061.221179831 5756.8333333333 
54601.833391629 5613.6733333333 
55147.851725545       5378.5 
55699.330242801 5280.0966666667 
56256.323545229 5080.2333333333 
56818.886780681      4864.62 
57387.075648488 4776.7733333333 
57960.946404973 4601.4133333333 
58540.555869022 4467.5866666667 
59125.961427713 4340.8266666667 
59717.22104199      4215.64 
60314.39325241 4088.8866666667 
60917.537184934 3985.4933333333 
61526.712556783      3875.48 
62141.979682351 3744.3666666667 
62763.399479174      3627.83 
63391.033473966      3465.12 
64024.943808706 3187.7071428571 
64665.193246793      2989.95 
65311.845179261      2797.47 
65964.963631053      2617.89 
66624.613267364      2518.36 
67290.859400038      2439.65 
67963.767994038     2346.195 
68643.405673978      2260.38 
69329.839730718     2214.265 
70023.138128025     2118.495 
70723.369509305       2029.5 
71430.603204399      2004.07 
72144.909236443     1917.825 
72866.358328807     1854.515 
73595.021912095       1785.8 
74330.972131216      1728.81 
75074.281852528       1649.3 
75825.024671053      1569.09 
76583.274917764      1536.52 
77349.107666942      1466.08 
78122.598743611      1407.35 
78903.824731047      1346.87 
79692.862978358     1296.805 
80489.791608141     1242.135 
81294.689524223     1209.825 
82107.636419465       1164.5 
82928.712783659     1117.515 
83757.999911496     1082.095 
84595.579910611 1040.0766666667 
85441.535709717     998.6945 
86295.951066814     973.0695 
87158.910577482     931.3635 
88030.499683257      908.365 
88910.80468009      881.789 
89799.912726891 851.36566666667 
90697.91185416      823.001 
91604.890972701      796.955 
92520.939882428 766.50333333333 
93446.149281253     736.4945 
94380.610774065      715.855 
95324.416881806      691.978 
96277.661050624      662.171 
97240.43766113       642.42 
98212.842037741      611.989 
99194.970458119     598.5645 
100186.9201627       584.08 
199060.83304441      41.7314 
399467.9878358      2.75955 
594753.39981818     0.553018 
793700.71765891     0.175792 
997811.18987739    0.0720761 
1193529.3359837    0.0347376 
1399507.0114645    0.0187252 
