#  WAVELENGTH	        FLUX	
#  (ANGSTROM)	(ERG/CM2/S/A)	
############	############	
324.86260866801  6.80211E-23 
334.70627057326  7.93994E-22 
344.8482052779   7.4678E-21 
355.29745074603  5.01238E-20 
362.43892950602  2.16809E-20 
373.42119150899  1.10593E-19 
384.7362270329  6.15147E-19 
392.46942519626  3.11718E-18 
404.36164124913   1.4507E-17 
412.48931023824  5.41194E-17 
420.78034537403  1.65772E-16 
429.23803031605  4.85592E-16 
437.8657147254  1.98883E-15 
446.66681559138  6.71703E-15 
455.64481858477  1.91338E-14 
469.4513122327  5.82185E-14 
478.88728360858  1.68466E-13 
488.51291800911  4.65305E-13 
498.3320276611  1.22871E-12 
503.31534793771  2.84833E-12 
508.34850141708  5.56235E-12 
518.56630629557  1.12792E-11 
528.98948905211  2.66031E-11 
539.62217778206  5.94617E-11 
545.01839955988  1.30915E-10 
555.97326939103  2.77574E-10 
567.14833210579  5.71126E-10 
578.54801358112   1.12873E-9 
584.33349371693   2.22716E-9 
596.07859694064    4.2334E-9 
608.05977673914   7.88349E-9 
614.14037450653   1.43205E-8 
626.48459603412    2.5477E-8 
639.0769364144   4.43966E-8 
645.46770577855   7.60397E-8 
651.92238283633   1.15326E-7 
658.44160666469   1.63931E-7 
671.67628295866   2.68741E-7 
678.39304578824   4.33386E-7 
692.02874600859   6.87937E-7 
698.94903346867   1.06563E-6 
712.99790904139   1.72714E-6 
720.12788813181   2.62165E-6 
734.60245868325   3.77319E-6 
741.94848327009   5.58187E-6 
749.36796810279    8.1694E-6 
764.43026426165   1.18319E-5 
772.07456690427   1.69415E-5 
779.79531257331   2.40579E-5 
787.59326569905   3.32653E-5 
803.4238903396   4.64121E-5 
811.45812924299    6.4357E-5 
819.57271053542   8.78083E-5 
827.76843764078  0.000118737 
844.40658323736  0.000159292 
852.85064906973  0.000211967 
861.37915556043  0.000279804 
869.99294711603  0.000363924 
878.69287658719  0.000476505 
887.47980535306  0.000615684 
896.3546034066  0.000783061 
914.37133093507     0.221235 
923.51504424442     0.622363 
932.75019468686     0.809071 
942.07769663373      1.06718 
951.49847360007      1.43265 
961.01345833607      1.83967 
970.62359291943      2.28406 
980.32982884862      2.87577 
990.13312713711      3.54202 
1000.0344584085      4.60346 
1010.0348029926      5.72981 
1020.1351510225      6.86066 
1030.3365025327      8.67282 
1040.639867558      10.6589 
1051.0462662336      13.0299 
1061.556728896      15.7026 
1072.1722961849      19.2042 
1082.8940191468       23.285 
1093.7229593382      27.7329 
1104.6601889316     136.9443 
1115.7067908209      292.865 
1126.8638587291      406.815 
1138.1324973164      507.615 
1149.5138222896      560.735 
1161.0089605125      759.914 
1172.6190501176       908.11 
1184.3452406188     808.6995 
1196.188693025       826.69 
1208.1505799552      251.258 
1220.2320857548      971.786 
1232.4344066123      1718.82 
1244.7587506785      7130.86 
1257.2063381852      9031.07 
1269.7784015671      14147.8 
1282.4761855828      21182.3 
1295.3009474386      17869.1 
1308.253956913      27361.1 
1321.3364964821      31619.1 
1334.5498614469     38086.55 
1347.8953600614      42369.4 
1361.374313662      45727.9 
1374.9880567986     49916.05 
1388.7379373666      58013.1 
1402.6253167403     65468.55 
1416.6515699077      74462.2 
1430.8180856068 80105.441176471 
1445.1262664628 101448.38461538 
1459.5775291275       107452 
1474.1733044187     124175.5 
1488.9150374629       149494 
1503.8041878376 159500.13636364 
1518.8422297159       146113 
1534.0306520131     269719.5 
1549.3709585332       358060 
1564.8646681186     434956.5 
1580.5133147997     810634.5 
1596.3184479477       929809 
1612.2816324272       870662 
1628.4044487515      1136580 
1644.688493239      1596420 
1661.1353781714 2499873.6363636 
1677.7467319531      5411790 
1694.5241992726      4222950 
1711.4694412654     10049345 
1728.584135678     14209750 
1745.8699770348     18570900 
1763.3286768051     13561700 
1780.9619635732     20066600 
1798.7715832089     18495750 
1816.759299041     16730200 
1834.9268920314     13820200 
1853.2761609517     18686250 
1871.8089225613     19579650 
1890.5270117869     20954300 
1909.4322819047     20846850 
1928.5266047238     17330000 
1947.811870771 25822145.454545 
1967.2899894787 25491658.823529 
1986.9628893735 23762623.809524 
2006.8325182673     20720900 
2026.9008434499     25574050 
2047.1698518844     24353750 
2067.6415504033     30119800 
2088.3179659073     26297150 
2109.2011455664     27028250 
2130.293157022     24062200 
2151.5960885923     25565050 
2173.1120494782     25342700 
2194.843169973 25858333.333333 
2216.7916016727     24614250 
2238.9595176894     22758350 
2261.3491128663     22455300 
2283.962603995 24132033.333333 
2306.8022300349     21974950 
2329.8702523353     15079150 
2353.1689548586 17188266.666667 
2376.7006444072     12691550 
2400.4676508513     14243550 
2424.4723273598 20372633.333333 
2448.7170506334     21469200 
2473.2042211397     18741200 
2497.9362633511 20669186.956522 
2522.9156259846 14048737.037037 
2548.1447822445     16066500 
2573.6262300669     19499200 
2599.3624923676 17899466.666667 
2625.3561172913     25600750 
2651.6096784642 26863566.666667 
2678.1257752488     24992100 
2704.9070330013 24024666.666667 
2731.9561033313 20562733.333333 
2759.2756643647 22175066.666667 
2786.8684210083      9931740 
2814.7371052184 27834133.333333 
2842.8844762706     25794800 
2871.3133210333     27164400 
2900.0264542436     31873900 
2929.026718786     29271600 
2958.3169859739     31346900 
2987.9001558336     31910650 
3017.779157392     31886800 
3047.9569489659     32078700 
3078.4365184556     33158800 
3109.2208836401     31745150 
3140.3130924765     32566600 
3171.7162234013     29807200 
3203.4333856353     30153100 
3235.4677194916     30978500 
3267.8223966866     32095000 
3300.5006206534     32462400 
3333.50562686     31570800 
3366.8406831286     31042200 
3400.5090899598     31249350 
3434.5141808594     31270500 
3468.859322668     30831750 
3503.5479158947     31348500 
3538.5833950537     31402050 
3573.9692290042     30023000 
3609.7089212942     30225260 
3645.8060105072     31616800 
3682.2640706123     30377950 
3719.0867113184     31598400 
3756.2775784316     40124800 
3793.8403542159     45587950 
3831.778757758     60049050 
3870.0965453356     37877000 
3908.797510789     57201000 
3947.8854858969     47856150 
3987.3643407558     68012150 
4027.2379841634     72819600 
4067.510364005     61022300 
4108.1854676451     53407900 
4149.2673223215 71160433.333333 
4190.7599955447     69616300 
4232.6675955002     67142100 
4274.9942714552     62657350 
4317.7442141697     42601400 
4360.9216563114     61878650 
4404.5308728746     62035300 
4448.5761816033     62794100 
4493.0619434193     63045750 
4537.9925628535     61832350 
4583.3724884821     60509800 
4629.2062133669 59420466.666667 
4675.4982755006     55087000 
4722.2532582556     57137000 
4769.4757908381     54730600 
4817.1705487465     44115200 
4865.342254234 42230166.666667 
4913.9956767763     50328550 
4963.1356335441     49138300 
5012.7669898795     48019400 
5062.8946597783 48158566.666667 
5113.5236063761     46072700 
5164.6588424398     44329500 
5216.3054308642     44270500 
5268.4684851729 42390433.333333 
5321.1531700246 41536433.333333 
5374.3647017249     40712000 
5428.1083487421 40571633.333333 
5482.3894322295 39524633.333333 
5537.2133265518 38465966.666667 
5592.5854598173     37945650 
5648.5113144155 36921433.333333 
5704.9964275597     36360500 
5762.0463918353 35449433.333333 
5819.6668557536 34616533.333333 
5877.8635243112 33462133.333333 
5936.6421595543 32743833.333333 
5996.0085811498     31661200 
6055.9686669613     31055200 
6116.5283536309 29483733.333333 
6177.6936371672     29447900 
6239.4705735389 28518866.666667 
6301.8652792743 27704733.333333 
6364.883932067     27009200 
6428.5327713877     25999100 
6492.8180991016 23172733.333333 
6557.7462800926 20866366.666667 
6623.3237428935 24169533.333333 
6689.5569803225     23670150 
6756.4525501257 23142066.666667 
6824.0170756269     22460900 
6892.2572463832 21852666.666667 
6961.179818847     21148275 
7030.7916170355 20652766.666667 
7101.0995332059     19830525 
7172.1105285379 19390933.333333 
7243.8316338233     18868850 
7316.2699501615     18472100 
7389.4326496631     17760850 
7463.3269761598     17293775 
7537.9602459214     16932075 
7613.3398483806 16411933.333333 
7689.4732468644     15984625 
7766.367979333     15462625 
7844.0316591264     14952650 
7922.4719757176     14513775 
8001.6966954748     14196925 
8081.7136624296     13854475 
8162.5307990539     13278150 
8244.1561070444     13057475 
8326.5976681148     12709500 
8409.863644796     12267900 
8493.9622812439     11514975 
8578.9019040564     11454025 
8664.6909230969     10631394 
8751.3378323279     11305525 
8838.8512106512     10197315 
8927.2397227577     10558770 
9016.5121199853   10205347.5 
9106.6772411851     10680700 
9197.744013597      8824630 
9289.721453733     10268960 
9382.6186682703      9807644 
9476.444854953      8430986 
9571.2093035025    9084237.5 
9666.9213965375      9050224 
9763.5906105029      8867662 
9861.226516608      8479648 
9959.838781774      7787136 
10059.437169592      7319660 
10160.031541288      7802385 
10261.631856701      7628685 
10364.248175268      7385960 
10467.89065702      7058355 
10572.56956359 6801373.3333333 
10678.295259226      6540165 
10785.078211819      6244930 
10892.928993937      5340400 
11001.858283876      6008980 
11111.876866715      5887490 
11222.995635382 5614863.3333333 
11335.225591736      5430905 
11448.577847653      5362235 
11563.06362613 5091323.3333333 
11678.694262391      4927765 
11795.481205015      4765185 
11913.436017065 4669946.6666667 
12032.570377236      4495465 
12152.896081008      4399590 
12274.425041818 4246186.6666667 
12397.169292236      4122220 
12521.140985159 3952196.6666667 
12646.35239501      3817320 
12772.81591896 3344436.6666667 
12900.54407815 3564703.3333333 
13029.549518932      3481685 
13159.845014121 3368066.6666667 
13291.443464262      3274275 
13424.357898905 3167696.6666667 
13558.601477894 3043213.3333333 
13694.187492673 2920263.3333333 
13831.129367599      2847560 
13969.440661275      2764130 
14109.135067888      2661280 
14250.226418567      2568390 
14392.728682753 2443736.6666667 
14536.65596958      2387782 
14682.022529276 2294066.6666667 
14828.842754569 2224686.6666667 
14977.131182115 2147546.6666667 
15126.902493936 2087706.6666667 
15278.171518875 2010173.3333333 
15430.953234064      1939150 
15585.262766404 1870276.6666667 
15741.115394068 1787476.6666667 
15898.526548009 1747621.4285714 
16057.511813489      1635780 
16218.086931624      1644725 
16380.26780094      1500090 
16544.07047895      1577275 
16709.511183739      1404205 
16876.606295577      1463770 
17045.372358532      1423050 
17215.826082118      1262545 
17387.984342939      1275040 
17561.864186368      1261810 
17737.482828232      1228035 
17914.857656514      1171315 
18094.006233079      1037490 
18274.94629541      1084200 
18457.695758364      1047710 
18642.272715948     947812.5 
18828.695443107       963740 
19016.982397539       949684 
19207.152221514     899557.5 
19399.223743729     809982.5 
19593.215981166     843325.5 
19789.148140978       817080 
19987.039622388     788845.5 
20186.910018612     757737.5 
20388.779118798     733088.5 
20592.666909986       704289 
20798.593579086       680093 
21006.579514877     654949.5 
21216.645310025       630375 
21428.811763126     603774.5 
21643.099880757 552411.66666667 
21859.530879564       560039 
22078.12618836     542255.5 
22298.907450244     525378.5 
22521.896524746     506085.5 
22747.115489993       486448 
22974.586644893     467689.5 
23204.332511342       453147 
23436.375836456 435657.33333333 
23670.73959482     417834.5 
23907.446990769       405204 
24146.521460676 389454.33333333 
24387.986675283     374401.5 
24631.866542036       359966 
24878.185207456     346201.5 
25126.967059531       333557 
25378.236730126       321352 
25632.019097427 308130.66666667 
25888.339288402     297408.5 
26147.222681286 270975.33333333 
26408.694908098       275092 
26672.781857179     259616.5 
26939.509675751 259441.66666667 
27208.904772509 248089.66666667 
27480.993820234 230206.33333333 
27755.803758436       231167 
28033.361796021       224010 
28313.695413981 214038.66666667 
28596.832368121       196757 
28882.800691802       197785 
29171.62869872 190875.33333333 
29463.344985707       183736 
29757.978435564 176465.66666667 
30055.55821992       164433 
30356.113802119 159602.66666667 
30659.67494014 157304.66666667 
30966.271689541 151499.66666667 
31275.934406437 146204.66666667 
31588.693750501 141176.66666667 
31904.580688006       136345 
32223.626494886     130643.5 
32545.862759835       125337 
32871.321387434     115919.5 
33200.034601308       115533 
33532.034947321       111524 
33867.355296794     107900.5 
34206.028849762     103504.5 
34548.08913826       100129 
34893.570029642     96952.55 
35242.505729939      92788.2 
35594.930787238     88790.45 
35950.880095111      85092.2 
36310.388896062      82313.7 
36673.492785022      79563.4 
37040.227712872      74891.3 
37410.629990001      71428.4 
37784.736289901     70310.65 
38162.5836528      67705.1 
38544.209489328     64947.15 
38929.651584221      62303.9 
39318.948100064     60251.55 
39712.137581064     57460.95 
40109.258956875     53711.15 
40510.351546444      53407.9 
40915.455061908     51763.05 
41324.609612527     48986.55 
41737.855708653     47795.15 
42155.234265739     46419.45 
42576.786608396      44772.2 
43002.55447448      43140.4 
43432.580019225     40756.05 
43866.905819417 39519.833333333 
44305.574877612     38128.65 
44748.630626388      36816.6 
45196.116932652     35570.25 
45648.078101978      34033.4 
46104.558882998     31493.95 
46565.604471828      30512.7 
47031.260516546      30269.2 
47501.573121712      29098.4 
47976.588852929     28182.15 
48456.354741458 27077.133333333 
48940.918288873      26006.9 
49430.327471761 25005.966666667 
49924.630746479      24041.5 
50423.877053944      23107.9 
50928.115824483     21507.35 
51437.396982728      21346.1 
51951.770952555     20640.35 
52471.288662081 19887.966666667 
52996.001548702 19059.966666667 
53525.961564189     18312.15 
54061.221179831      17718.6 
54601.833391629 16953.066666667 
55147.851725545     16322.55 
55699.330242801 15807.666666667 
56256.323545229 15171.166666667 
56818.886780681 14477.333333333 
57387.075648488 13968.766666667 
57960.946404973 13410.833333333 
58540.555869022      12557.4 
59125.961427713      12221.1 
59717.22104199      11888.6 
60314.39325241 11458.733333333 
60917.537184934 11025.966666667 
61526.712556783 10615.966666667 
62141.979682351 10173.733333333 
62763.399479174 9708.3666666667 
63391.033473966 9480.0133333333 
64024.943808706 9073.3628571429 
64665.193246793      8759.49 
65311.845179261     8453.865 
65964.963631053      8058.23 
66624.613267364      7771.01 
67290.859400038      7392.69 
67963.767994038      7156.81 
68643.405673978      6922.24 
69329.839730718       6690.5 
70023.138128025     6396.985 
70723.369509305      6121.28 
71430.603204399      5920.63 
72144.909236443     5722.785 
72866.358328807     5487.415 
73595.021912095     5241.405 
74330.972131216     4809.375 
75074.281852528      4800.71 
75825.024671053      4683.27 
76583.274917764      4541.87 
77349.107666942     4350.015 
78122.598743611      4187.14 
78903.824731047     4025.015 
79692.862978358     3867.295 
80489.791608141     3717.605 
81294.689524223      3559.45 
82107.636419465     3442.245 
82928.712783659     3311.775 
83757.999911496      3187.75 
84595.579910611      3044.88 
85441.535709717     2903.585 
86295.951066814      2780.32 
87158.910577482     2645.095 
88030.499683257      2604.15 
88910.80468009     2515.915 
89799.912726891      2407.34 
90697.91185416      2304.32 
91604.890972701     2226.715 
92520.939882428 2131.7066666667 
93446.149281253      2020.07 
94380.610774065     1975.965 
95324.416881806 1896.6566666667 
96277.661050624     1820.895 
97240.43766113      1747.55 
98212.842037741      1678.83 
99194.970458119     1625.995 
100186.9201627      1587.63 
199060.83304441      101.274 
399467.9878358      6.27891 
594753.39981818      1.22751 
793700.71765891      0.38496 
997811.18987739     0.156494 
1193529.3359837    0.0749877 
1399507.0114645    0.0402504 
