#  WAVELENGTH	        FLUX	
#  (ANGSTROM)	(ERG/CM2/S/A)	
############	############	
503.31534793771  1.28581E-24 
508.34850141708  3.39158E-24 
518.56630629557  1.02462E-23 
528.98948905211   3.9072E-23 
539.62217778206  1.39258E-22 
545.01839955988   4.7849E-22 
555.97326939103  1.55966E-21 
567.14833210579  4.86362E-21 
578.54801358112   1.4385E-20 
584.33349371693  4.17953E-20 
596.07859694064  1.15625E-19 
608.05977673914  3.09212E-19 
614.14037450653  7.97907E-19 
626.48459603412  1.99414E-18 
639.0769364144  4.83376E-18 
645.46770577855  1.13831E-17 
651.92238283633  2.21298E-17 
658.44160666469  3.89224E-17 
671.67628295866  8.57352E-17 
678.39304578824  1.84365E-16 
692.02874600859  3.86468E-16 
698.94903346867  7.85486E-16 
712.99790904139  1.69922E-15 
720.12788813181  3.32956E-15 
734.60245868325  5.99504E-15 
741.94848327009  1.13068E-14 
749.36796810279  2.09486E-14 
764.43026426165  3.82244E-14 
772.07456690427  6.83932E-14 
779.79531257331  1.20779E-13 
787.59326569905    2.068E-13 
803.4238903396  3.55014E-13 
811.45812924299   6.0228E-13 
819.57271053542  1.00113E-12 
827.76843764078  1.64195E-12 
844.40658323736   2.6577E-12 
852.85064906973   4.2513E-12 
861.37915556043  6.71316E-12 
869.99294711603  1.04257E-11 
878.69287658719  1.61726E-11 
887.47980535306  2.47092E-11 
896.3546034066  3.72882E-11 
914.37133093507   5.56844E-8 
923.51504424442   2.03546E-7 
932.75019468686   3.11146E-7 
942.07769663373   4.71133E-7 
951.49847360007   7.31341E-7 
961.01345833607    1.0872E-6 
970.62359291943   1.60199E-6 
980.32982884862   2.34186E-6 
990.13312713711   3.28369E-6 
1000.0344584085   4.96525E-6 
1010.0348029926   7.08574E-6 
1020.1351510225   9.54497E-6 
1030.3365025327   1.41225E-5 
1040.639867558   1.97265E-5 
1051.0462662336   2.73677E-5 
1061.556728896   3.70975E-5 
1072.1722961849    5.0813E-5 
1082.8940191468   7.02947E-5 
1093.7229593382   9.35302E-5 
1104.6601889316  0.000401364 
1115.7067908209  0.000939574 
1126.8638587291    0.0014198 
1138.1324973164   0.00200428 
1149.5138222896   0.00238663 
1161.0089605125   0.00369089 
1172.6190501176   0.00472119 
1184.3452406188  0.004427095 
1196.188693025   0.00447293 
1208.1505799552    0.0020532 
1220.2320857548   0.00643588 
1232.4344066123    0.0130937 
1244.7587506785   0.05194325 
1257.2063381852    0.0641529 
1269.7784015671      0.11635 
1282.4761855828     0.196945 
1295.3009474386      0.15893 
1308.253956913     0.302847 
1321.3364964821     0.338957 
1334.5498614469     0.455133 
1347.8953600614     0.566443 
1361.374313662       0.6103 
1374.9880567986     0.725321 
1388.7379373666     0.897636 
1402.6253167403     1.161725 
1416.6515699077      1.36078 
1430.8180856068 1.8066429411765 
1445.1262664628 2.1784561538462 
1459.5775291275      2.84168 
1474.1733044187      3.14185 
1488.9150374629      4.73073 
1503.8041878376 5.2490331818182 
1518.8422297159      6.10479 
1534.0306520131     17.87685 
1549.3709585332      27.7076 
1564.8646681186      35.9793 
1580.5133147997      70.2817 
1596.3184479477      78.6841 
1612.2816324272      87.5126 
1628.4044487515       101.68 
1644.688493239    104.73985 
1661.1353781714 137.95761818182 
1677.7467319531      364.572 
1694.5241992726      556.956 
1711.4694412654        800.9 
1728.584135678      1255.12 
1745.8699770348      2004.85 
1763.3286768051     2131.655 
1780.9619635732     3030.685 
1798.7715832089     2624.145 
1816.759299041      2783.32 
1834.9268920314     4057.435 
1853.2761609517     5778.665 
1871.8089225613      7291.52 
1890.5270117869     9098.705 
1909.4322819047     9621.685 
1928.5266047238    10376.655 
1947.811870771 17845.918181818 
1967.2899894787 19861.958823529 
1986.9628893735 22858.295238095 
2006.8325182673      20471.1 
2026.9008434499      30392.3 
2047.1698518844      25416.5 
2067.6415504033    45238.055 
2088.3179659073      73221.9 
2109.2011455664      73227.3 
2130.293157022     70468.45 
2151.5960885923      84624.8 
2173.1120494782     90306.95 
2194.843169973 100609.36666667 
2216.7916016727    106607.35 
2238.9595176894      90410.3 
2261.3491128663     76496.15 
2283.962603995       119755 
2306.8022300349      94877.3 
2329.8702523353     28415.15 
2353.1689548586 37782.533333333 
2376.7006444072     21987.95 
2400.4676508513      36567.5 
2424.4723273598       163485 
2448.7170506334       195309 
2473.2042211397       145068 
2497.9362633511 181609.30434783 
2522.9156259846 132536.92592593 
2548.1447822445     182287.5 
2573.6262300669     113321.3 
2599.3624923676      66166.5 
2625.3561172913       318291 
2651.6096784642       491702 
2678.1257752488     466204.5 
2704.9070330013 350528.33333333 
2731.9561033313 173163.33333333 
2759.2756643647 190390.33333333 
2786.8684210083     48885.35 
2814.7371052184       298827 
2842.8844762706 428374.66666667 
2871.3133210333 723713.33333333 
2900.0264542436      1117720 
2929.026718786     967368.5 
2958.3169859739      1289460 
2987.9001558336      1406595 
3017.779157392      1567010 
3047.9569489659      1550725 
3078.4365184556      1811500 
3109.2208836401      1767165 
3140.3130924765      1820390 
3171.7162234013      1574210 
3203.4333856353      1624605 
3235.4677194916      1867340 
3267.8223966866      2261275 
3300.5006206534      2280850 
3333.50562686      2059200 
3366.8406831286      2092340 
3400.5090899598      2586475 
3434.5141808594      2758770 
3468.859322668      2634330 
3503.5479158947      2903465 
3538.5833950537      3011570 
3573.9692290042      2823410 
3609.7089212942      2970058 
3645.8060105072      3341580 
3682.2640706123      4050150 
3719.0867113184      5585015 
3756.2775784316      6962740 
3793.8403542159      7351375 
3831.778757758      7542835 
3870.0965453356      6414480 
3908.797510789      3083865 
3947.8854858969      1861205 
3987.3643407558      7305510 
4027.2379841634      9440480 
4067.510364005     10139990 
4108.1854676451     10544900 
4149.2673223215 11116066.666667 
4190.7599955447     10898300 
4232.6675955002     11102000 
4274.9942714552     10048950 
4317.7442141697     11032900 
4360.9216563114     12062600 
4404.5308728746     11497400 
4448.5761816033 12158533.333333 
4493.0619434193     12968900 
4537.9925628535     12719300 
4583.3724884821     12789450 
4629.2062133669 13168166.666667 
4675.4982755006     12598900 
4722.2532582556     13300750 
4769.4757908381     13355600 
4817.1705487465     12858250 
4865.342254234 12103633.333333 
4913.9956767763     12733750 
4963.1356335441 12097333.333333 
5012.7669898795     12056200 
5062.8946597783     12484800 
5113.5236063761     11604100 
5164.6588424398 11296366.666667 
5216.3054308642     11589050 
5268.4684851729     11106800 
5321.1531700246 11500866.666667 
5374.3647017249     11377000 
5428.1083487421 11619733.333333 
5482.3894322295     11331900 
5537.2133265518     11341500 
5592.5854598173     11492500 
5648.5113144155     11120700 
5704.9964275597 11261766.666667 
5762.0463918353     11092900 
5819.6668557536     11179100 
5877.8635243112 10814966.666667 
5936.6421595543     10811400 
5996.0085811498     10519200 
6055.9686669613 10325766.666667 
6116.5283536309 9660523.3333333 
6177.6936371672      9971200 
6239.4705735389 9656866.6666667 
6301.8652792743 9482806.6666667 
6364.883932067 9425406.6666667 
6428.5327713877      9262860 
6492.8180991016      9108690 
6557.7462800926 8441516.6666667 
6623.3237428935 8949853.3333333 
6689.5569803225    8797697.5 
6756.4525501257 8644376.6666667 
6824.0170756269    8479262.5 
6892.2572463832 8326066.6666667 
6961.179818847    8091662.5 
7030.7916170355 7992276.6666667 
7101.0995332059    7721492.5 
7172.1105285379 7500706.6666667 
7243.8316338233    7407682.5 
7316.2699501615 7360093.3333333 
7389.4326496631      7055880 
7463.3269761598    7016577.5 
7537.9602459214      6970320 
7613.3398483806 6793386.6666667 
7689.4732468644      6649585 
7766.367979333      6547225 
7844.0316591264      6347730 
7922.4719757176      6220070 
8001.6966954748      6115025 
8081.7136624296    6039167.5 
8162.5307990539      5798880 
8244.1561070444      5734745 
8326.5976681148    5567087.5 
8409.863644796      5384902 
8493.9622812439    4493177.5 
8578.9019040564      5326480 
8664.6909230969      4946620 
8751.3378323279    5459527.5 
8838.8512106512      5215420 
8927.2397227577      5142606 
9016.5121199853      5032340 
9106.6772411851      5023892 
9197.744013597    4665317.5 
9289.721453733      4837984 
9382.6186682703      4614118 
9476.444854953      4489968 
9571.2093035025      4425950 
9666.9213965375      4308310 
9763.5906105029      4266298 
9861.226516608      4141752 
9959.838781774 4063115.3333333 
10059.437169592      3889595 
10160.031541288      3868525 
10261.631856701      3799675 
10364.248175268      3699965 
10467.89065702      3536250 
10572.56956359 3463393.3333333 
10678.295259226      3351170 
10785.078211819      3260350 
10892.928993937      3121315 
11001.858283876      3165015 
11111.876866715      3068810 
11222.995635382      2950070 
11335.225591736      2856050 
11448.577847653      2867625 
11563.06362613      2720410 
11678.694262391      2672160 
11795.481205015      2578510 
11913.436017065 2559766.6666667 
12032.570377236      2477015 
12152.896081008      2442490 
12274.425041818 2377136.6666667 
12397.169292236      2320295 
12521.140985159      2237900 
12646.35239501      2197525 
12772.81591896 2098313.3333333 
12900.54407815 2063276.6666667 
13029.549518932      2017755 
13159.845014121      1955350 
13291.443464262      1912525 
13424.357898905 1864246.6666667 
13558.601477894 1792643.3333333 
13694.187492673      1731170 
13831.129367599      1702220 
13969.440661275 1658613.3333333 
14109.135067888      1602240 
14250.226418567 1555523.3333333 
14392.728682753      1480960 
14536.65596958 1461363.6666667 
14682.022529276      1403910 
14828.842754569 1372536.6666667 
14977.131182115      1321940 
15126.902493936 1299283.3333333 
15278.171518875 1257406.6666667 
15430.953234064      1230600 
15585.262766404      1203310 
15741.115394068      1152560 
15898.526548009 1153842.8571429 
16057.511813489      1092320 
16218.086931624      1093970 
16380.26780094      1024670 
16544.07047895      1031725 
16709.511183739       972677 
16876.606295577       967478 
17045.372358532       929637 
17215.826082118       869792 
17387.984342939     849514.5 
17561.864186368       827319 
17737.482828232       804156 
17914.857656514       776371 
18094.006233079       734072 
18274.94629541       719172 
18457.695758364       695944 
18642.272715948       663213 
18828.695443107     644462.5 
19016.982397539       632562 
19207.152221514       606942 
19399.223743729       575741 
19593.215981166       563698 
19789.148140978     545280.5 
19987.039622388       529648 
20186.910018612     506854.5 
20388.779118798       493748 
20592.666909986     473982.5 
20798.593579086     457898.5 
21006.579514877       442705 
21216.645310025       427495 
21428.811763126     415846.5 
21643.099880757       392704 
21859.530879564     381401.5 
22078.12618836       369121 
22298.907450244     358184.5 
22521.896524746       343944 
22747.115489993 331697.33333333 
22974.586644893       319708 
23204.332511342       309249 
23436.375836456 297864.33333333 
23670.73959482     285565.5 
23907.446990769     277062.5 
24146.521460676       266186 
24387.986675283     256206.5 
24631.866542036       247837 
24878.185207456       237976 
25126.967059531       230701 
25378.236730126       223403 
25632.019097427 213574.33333333 
25888.339288402       209344 
26147.222681286 197886.66666667 
26408.694908098 192772.66666667 
26672.781857179       184971 
26939.509675751 181383.33333333 
27208.904772509 174402.66666667 
27480.993820234       165401 
27755.803758436     162027.5 
28033.361796021 156767.66666667 
28313.695413981 150689.33333333 
28596.832368121 143388.33333333 
28882.800691802       139271 
29171.62869872 133948.66666667 
29463.344985707 129242.33333333 
29757.978435564 124279.66666667 
30055.55821992 118837.33333333 
30356.113802119 115143.66666667 
30659.67494014 110988.66666667 
30966.271689541       106798 
31275.934406437       103258 
31588.693750501 99822.733333333 
31904.580688006     96517.76 
32223.626494886     92588.05 
32545.862759835      89298.6 
32871.321387434     85165.95 
33200.034601308      82044.5 
33532.034947321      79158.1 
33867.355296794      76513.9 
34206.028849762      73610.3 
34548.08913826      71213.6 
34893.570029642      69088.4 
35242.505729939      66098.7 
35594.930787238     63299.25 
35950.880095111      60790.6 
36310.388896062      58608.5 
36673.492785022     56726.75 
37040.227712872     54379.35 
37410.629990001      51804.3 
37784.736289901      50290.2 
38162.5836528     48643.85 
38544.209489328     46652.95 
38929.651584221     44799.65 
39318.948100064      43249.1 
39712.137581064     41339.55 
40109.258956875     39643.95 
40510.351546444      38567.7 
40915.455061908      37317.4 
41324.609612527      35683.1 
41737.855708653        34515 
42155.234265739     33432.85 
42576.786608396     32124.45 
43002.55447448      30654.2 
43432.580019225        29143 
43866.905819417 27859.533333333 
44305.574877612     26540.05 
44748.630626388        25692 
45196.116932652     24692.55 
45648.078101978        23719 
46104.558882998     22687.55 
46565.604471828      22040.9 
47031.260516546 21325.466666667 
47501.573121712        20502 
47976.588852929     19870.25 
48456.354741458 19126.833333333 
48940.918288873     18409.55 
49430.327471761      17729.7 
49924.630746479      17062.1 
50423.877053944 16427.466666667 
50928.115824483     15775.85 
51437.396982728 15277.533333333 
51951.770952555     14713.75 
52471.288662081 14201.833333333 
52996.001548702      13627.4 
53525.961564189      13124.6 
54061.221179831 12697.433333333 
54601.833391629 12182.766666667 
55147.851725545     11745.45 
55699.330242801 11385.266666667 
56256.323545229 10952.466666667 
56818.886780681      10498.4 
57387.075648488 10118.823333333 
57960.946404973      9736.06 
58540.555869022 9325.7233333333 
59125.961427713 8959.3866666667 
59717.22104199 8672.6266666667 
60314.39325241 8343.3266666667 
60917.537184934      8031.21 
61526.712556783 7746.1566666667 
62141.979682351      7452.53 
62763.399479174 7161.6533333333 
63391.033473966      6931.51 
64024.943808706       6634.7 
64665.193246793      6400.75 
65311.845179261     6186.955 
65964.963631053     5900.935 
66624.613267364      5699.62 
67290.859400038         5488 
67963.767994038         5255 
68643.405673978      5075.55 
69329.839730718      4906.03 
70023.138128025     4694.405 
70723.369509305      4493.23 
71430.603204399      4347.95 
72144.909236443     4201.365 
72866.358328807     4033.755 
73595.021912095     3864.445 
74330.972131216     3669.985 
75074.281852528      3554.29 
75825.024671053      3447.67 
76583.274917764       3343.3 
77349.107666942     3206.865 
78122.598743611     3085.705 
78903.824731047      2964.87 
79692.862978358      2848.74 
80489.791608141     2739.995 
81294.689524223     2630.045 
82107.636419465     2537.825 
82928.712783659     2440.985 
83757.999911496      2349.98 
84595.579910611 2246.0433333333 
85441.535709717      2144.53 
86295.951066814      2064.73 
87158.910577482      1990.51 
88030.499683257     1923.285 
88910.80468009     1857.235 
89799.912726891 1777.2666666667 
90697.91185416      1701.07 
91604.890972701     1645.485 
92520.939882428 1576.6566666667 
93446.149281253     1508.425 
94380.610774065      1461.54 
95324.416881806 1402.0433333333 
96277.661050624     1346.885 
97240.43766113      1292.33 
98212.842037741      1241.55 
99194.970458119      1202.93 
100186.9201627      1174.69 
199060.83304441      75.5693 
399467.9878358      4.70395 
594753.39981818     0.920477 
793700.71765891     0.288687 
997811.18987739     0.117333 
1193529.3359837    0.0562036 
1399507.0114645    0.0301576 
