#  WAVELENGTH	        FLUX	
#  (ANGSTROM)	(ERG/CM2/S/A)	
############	############	
        90.9   1.27137E-5 
    92.72709   3.80754E-5 
95.53681355409  0.000104972 
97.457103506527  0.000197468 
99.415991287008  0.000398142 
101.41425271188  0.000931833 
103.45267919139   0.00172085 
105.53207804313   0.00311454 
107.6532728118   0.00607448 
109.81710359532    0.0138271 
113.14467165136    0.0390297 
117.73879903054     0.108403 
120.10534889105      0.26659 
123.7446610678     0.617207 
126.23192875526      1.05045 
127.49424804281      1.46766 
130.05688242847      2.30946 
131.35745125276      3.44156 
132.67102576529       4.7128 
135.33771338317      8.02781 
139.43858143639      14.9944 
142.24129692326      28.0068 
146.55135046134       52.005 
150.99200293167      102.513 
154.02694219059      197.804 
158.69411256591      344.246 
161.88386422848      774.535 
165.13772989948       1366.5 
170.14156825316      2277.89 
171.84298393569      3269.33 
175.2970279128      5129.66 
178.82049817385      7799.46 
180.60870315558      8677.55 
186.0813274699      15543.2 
189.82156215205      25508.1 
193.6369755513      37970.5 
197.52907875988      60442.4 
201.49941324296      72564.8 
203.51440737539       107250 
209.68109743327       169285 
216.03464436659       263278 
218.19499081026       355683 
222.58071012555       427828 
224.8065172268       566976 
229.32512822306     31023700 
233.93456330034     90543000 
238.63664802268    116211000 
245.86757709442    210902000 
250.80951539401    619332000 
255.85078665343   2162940000 
258.40929451997   1722540000 
263.60332133982  12807400000 
266.23935455322  14122400000 
271.59076557974  18060800000 
277.04973996789   9425740000 
282.61843974125  21651200000 
288.29907038004  42066000000 
294.09388169468  32878800000 
300.00516871675  32467500000 
306.03527260795  43386000000 
315.30844740325   7554800000 
324.86260866801  11324200000 
334.70627057326   8453700000 
344.8482052779   9352000000 
355.29745074603  24432500000 
362.43892950602  66275700000 
373.42119150899  92936300000 
384.7362270329  69421400000 
392.46942519626 142954000000 
404.36164124913 275063000000 
412.48931023824 254618000000 
420.78034537403 217808000000 
429.23803031605 211103000000 
437.8657147254 278904000000 
446.66681559138 278472000000 
455.64481858477 208128000000 
469.4513122327 247612000000 
478.88728360858 296757000000 
488.51291800911 212450000000 
498.3320276611 376084000000 
503.31534793771 279286000000 
508.34850141708 360240000000 
518.56630629557 332635000000 
528.98948905211 305797000000 
539.62217778206 223183000000 
545.01839955988 163470000000 
555.97326939103 232261000000 
567.14833210579 322280000000 
578.54801358112 324633000000 
584.33349371693 318083000000 
596.07859694064 245157000000 
608.05977673914 180751000000 
614.14037450653 263594000000 
626.48459603412 213557000000 
639.0769364144 283780000000 
645.46770577855 255855000000 
651.92238283633 213136000000 
658.44160666469 269651000000 
671.67628295866 271444000000 
678.39304578824 226323000000 
692.02874600859 257684000000 
698.94903346867 210253000000 
712.99790904139 240402000000 
720.12788813181 248049000000 
734.60245868325 240986000000 
741.94848327009 220448000000 
749.36796810279 210814000000 
764.43026426165 170481000000 
772.07456690427 203900000000 
779.79531257331 158725000000 
787.59326569905 189758000000 
803.4238903396 198061000000 
811.45812924299 192305000000 
819.57271053542 191093000000 
827.76843764078 163368000000 
844.40658323736 177780000000 
852.85064906973 159633000000 
861.37915556043 172559000000 
869.99294711603 171560000000 
878.69287658719 163193000000 
887.47980535306 157324000000 
896.3546034066 150536000000 
914.37133093507 111990000000 
923.51504424442 159137000000 
932.75019468686 197495000000 
942.07769663373 208909000000 
951.49847360007 237503000000 
961.01345833607 238901000000 
970.62359291943 193056000000 
980.32982884862 211933000000 
990.13312713711 182470000000 
1000.0344584085 181285000000 
1010.0348029926 185080000000 
1020.1351510225 180680000000 
1030.3365025327 196305000000 
1040.639867558 201967000000 
1051.0462662336 196017000000 
1061.556728896 185634000000 
1072.1722961849 190219000000 
1082.8940191468 173567000000 
1093.7229593382 178696000000 
1104.6601889316 174110000000 
1115.7067908209 166674000000 
1126.8638587291 168663000000 
1138.1324973164 168060000000 
1149.5138222896 158540000000 
1161.0089605125 146109000000 
1172.6190501176 133073000000 
1184.3452406188 136735500000 
1196.188693025 129124000000 
1208.1505799552 113413000000 
1220.2320857548 121109000000 
1232.4344066123 114551000000 
1244.7587506785 112081500000 
1257.2063381852 115447000000 
1269.7784015671 115298000000 
1282.4761855828 113266500000 
1295.3009474386 108463000000 
1308.253956913 106419000000 
1321.3364964821 103775000000 
1334.5498614469 100036050000 
1347.8953600614  94144400000 
1361.374313662  89001200000 
1374.9880567986  84800200000 
1388.7379373666  83117800000 
1402.6253167403  82433150000 
1416.6515699077  80753300000 
1430.8180856068 81269317647.059 
1445.1262664628 76553992307.692 
1459.5775291275  74767600000 
1474.1733044187  74984350000 
1488.9150374629  72250600000 
1503.8041878376 69723868181.818 
1518.8422297159  68397300000 
1534.0306520131  57531050000 
1549.3709585332  53347800000 
1564.8646681186  60380900000 
1580.5133147997  59751150000 
1596.3184479477  57338300000 
1612.2816324272  56132850000 
1628.4044487515  56516000000 
1644.688493239  54160200000 
1661.1353781714 53073536363.636 
1677.7467319531  53778300000 
1694.5241992726  52263850000 
1711.4694412654  48084800000 
1728.584135678  49112750000 
1745.8699770348  47777000000 
1763.3286768051  45949000000 
1780.9619635732  44482000000 
1798.7715832089  42391550000 
1816.759299041  41253800000 
1834.9268920314  40743450000 
1853.2761609517  39904800000 
1871.8089225613  38302250000 
1890.5270117869  37737000000 
1909.4322819047  35998600000 
1928.5266047238  35517000000 
1947.811870771 33917936363.636 
1967.2899894787 33122517647.059 
1986.9628893735 32253480952.381 
2006.8325182673  31353150000 
2026.9008434499  29992700000 
2047.1698518844  21768050000 
2067.6415504033  23009855000 
2088.3179659073  26698650000 
2109.2011455664  26328050000 
2130.293157022  25655550000 
2151.5960885923  24497200000 
2173.1120494782  24082000000 
2194.843169973  23321800000 
2216.7916016727  22718150000 
2238.9595176894  21724600000 
2261.3491128663  21409050000 
2283.962603995 20186833333.333 
2306.8022300349  19675950000 
2329.8702523353  19151850000 
2353.1689548586 18132366666.667 
2376.7006444072  17028000000 
2400.4676508513  16802900000 
2424.4723273598  16475800000 
2448.7170506334  15772650000 
2473.2042211397 14923466666.667 
2497.9362633511 14449004347.826 
2522.9156259846  14319000000 
2548.1447822445  13973550000 
2573.6262300669 13347266666.667 
2599.3624923676 12904333333.333 
2625.3561172913  12526800000 
2651.6096784642 12085233333.333 
2678.1257752488  11680100000 
2704.9070330013 11400033333.333 
2731.9561033313 10844366666.667 
2759.2756643647 10457733333.333 
2786.8684210083  10085300000 
2814.7371052184 9799056666.6667 
2842.8844762706 9409843333.3333 
2871.3133210333 8992733333.3333 
2900.0264542436   8809550000 
2929.026718786   8540215000 
2958.3169859739   8206940000 
2987.9001558336   7872730000 
3017.779157392   7535100000 
3047.9569489659   7276185000 
3078.4365184556   7084340000 
3109.2208836401   6840455000 
3140.3130924765   6560850000 
3171.7162234013   6352090000 
3203.4333856353   6081980000 
3235.4677194916   5949230000 
3267.8223966866   5709430000 
3300.5006206534   5471995000 
3333.50562686   5236800000 
3366.8406831286   5098570000 
3400.5090899598   4894770000 
3434.5141808594   4717950000 
3468.859322668   4599865000 
3503.5479158947   4423605000 
3538.5833950537   4239245000 
3573.9692290042   4112790000 
3609.7089212942   3949016000 
3645.8060105072 3369546666.6667 
3682.2640706123   3275085000 
3719.0867113184   3286025000 
3756.2775784316   3329690000 
3793.8403542159   3266610000 
3831.778757758   3254095000 
3870.0965453356   2982800000 
3908.797510789   3084640000 
3947.8854858969   2872785000 
3987.3643407558   2880800000 
4027.2379841634   2755035000 
4067.510364005   2644385000 
4108.1854676451   2494440000 
4149.2673223215 2466743333.3333 
4190.7599955447   2346350000 
4232.6675955002   2284430000 
4274.9942714552   2201390000 
4317.7442141697   2035540000 
4360.9216563114   2036575000 
4404.5308728746   1966075000 
4448.5761816033 1893096666.6667 
4493.0619434193   1808155000 
4537.9925628535   1736580000 
4583.3724884821   1698995000 
4629.2062133669   1613730000 
4675.4982755006   1542740000 
4722.2532582556   1526345000 
4769.4757908381 1464543333.3333 
4817.1705487465   1397555000 
4865.342254234 1324706666.6667 
4913.9956767763   1304070000 
4963.1356335441 1255106666.6667 
5012.7669898795   1207460000 
5062.8946597783   1163890000 
5113.5236063761   1119650000 
5164.6588424398 1081646666.6667 
5216.3054308642   1042090000 
5268.4684851729   1005342000 
5321.1531700246    963695000 
5374.3647017249    920712500 
5428.1083487421 897850333.33333 
5482.3894322295 860727333.33333 
5537.2133265518 824301333.33333 
5592.5854598173    798419000 
5648.5113144155 766935333.33333 
5704.9964275597 682336666.66667 
5762.0463918353 655606333.33333 
5819.6668557536 640007666.66667 
5877.8635243112    629764000 
5936.6421595543 623138666.66667 
5996.0085811498    608035000 
6055.9686669613    586389000 
6116.5283536309    564582000 
6177.6936371672    544513000 
6239.4705735389    525601000 
6301.8652792743    505451000 
6364.883932067 486966666.66667 
6428.5327713877    468559250 
6492.8180991016 445827666.66667 
6557.7462800926    423388000 
6623.3237428935    418572000 
6689.5569803225    400516500 
6756.4525501257    386700000 
6824.0170756269    370122000 
6892.2572463832 357305666.66667 
6961.179818847    343483750 
7030.7916170355 330282666.66667 
7101.0995332059    316999250 
7172.1105285379 305749333.33333 
7243.8316338233    295179000 
7316.2699501615    284469000 
7389.4326496631    273964250 
7463.3269761598    262783750 
7537.9602459214    250985500 
7613.3398483806 243406333.33333 
7689.4732468644    234548250 
7766.367979333    225823000 
7844.0316591264    216799500 
7922.4719757176    208649500 
8001.6966954748    200758250 
8081.7136624296    193231750 
8162.5307990539    180335000 
8244.1561070444    169475500 
8326.5976681148    163435750 
8409.863644796    157752800 
8493.9622812439    152602250 
8578.9019040564    148645000 
8664.6909230969    143990000 
8751.3378323279    141090750 
8838.8512106512    135131250 
8927.2397227577    130686200 
9016.5121199853    126218250 
9106.6772411851    122220000 
9197.744013597    115063750 
9289.721453733    112621400 
9382.6186682703    108695600 
9476.444854953    102294020 
9571.2093035025    100531150 
9666.9213965375     96788860 
9763.5906105029     92983820 
9861.226516608     89548960 
9959.838781774 85736893.333333 
10059.437169592     81149950 
10160.031541288     79962600 
10261.631856701     76885100 
10364.248175268     73833300 
10467.89065702     71361100 
10572.56956359 68125433.333333 
10678.295259226     65061550 
10785.078211819     62662800 
10892.928993937     59095250 
11001.858283876     58383200 
11111.876866715     56373850 
11222.995635382 53958466.666667 
11335.225591736     51675950 
11448.577847653     49932200 
11563.06362613 47474933.333333 
11678.694262391     45870650 
11795.481205015     44343200 
11913.436017065 42544333.333333 
12032.570377236     40843150 
12152.896081008     39551000 
12274.425041818     37999400 
12397.169292236     36513950 
12521.140985159     35101600 
12646.35239501     33756900 
12772.81591896     31945800 
12900.54407815 31018433.333333 
13029.549518932     29865200 
13159.845014121     28766700 
13291.443464262     27714950 
13424.357898905 26712466.666667 
13558.601477894 25570066.666667 
13694.187492673 24484733.333333 
13831.129367599     23623950 
13969.440661275 22803633.333333 
14109.135067888 21861666.666667 
14250.226418567     20961900 
14392.728682753     20123300 
14536.65596958     19322400 
14682.022529276     18482500 
14828.842754569     17834900 
14977.131182115 17141866.666667 
15126.902493936 16482333.333333 
15278.171518875 15851433.333333 
15430.953234064 15250166.666667 
15585.262766404 14675166.666667 
15741.115394068 14134466.666667 
15898.526548009 13570585.714286 
16057.511813489     12999800 
16218.086931624     12586150 
16380.26780094     12044300 
16544.07047895     11720800 
16709.511183739     11092750 
16876.606295577     10789200 
17045.372358532     10417200 
17215.826082118      9862360 
17387.984342939      9499460 
17561.864186368      9188280 
17737.482828232      8884635 
17914.857656514      8498695 
18094.006233079      8039910 
18274.94629541      7787155 
18457.695758364      7539360 
18642.272715948      7150335 
18828.695443107      7000555 
19016.982397539      6712820 
19207.152221514      6438870 
19399.223743729      6102290 
19593.215981166      5935635 
19789.148140978      5701240 
19987.039622388      5478915 
20186.910018612      5267025 
20388.779118798      5064635 
20592.666909986      4867025 
20798.593579086      4689095 
21006.579514877      4514435 
21216.645310025      4348280 
21428.811763126      4188370 
21643.099880757 3961306.6666667 
21859.530879564      3822130 
22078.12618836      3686560 
22298.907450244      3556935 
22521.896524746      3432950 
22747.115489993 3288293.3333333 
22974.586644893      3149335 
23204.332511342      3043000 
23436.375836456 2916166.6666667 
23670.73959482      2795565 
23907.446990769      2703545 
24146.521460676 2593943.3333333 
24387.986675283      2489975 
24631.866542036      2390920 
24878.185207456      2296760 
25126.967059531 2206666.6666667 
25378.236730126      2122115 
25632.019097427 2039303.3333333 
25888.339288402      1962370 
26147.222681286      1865440 
26408.694908098 1805596.6666667 
26672.781857179      1732240 
26939.509675751      1676260 
27208.904772509 1603773.3333333 
27480.993820234      1528040 
27755.803758436      1480995 
28033.361796021 1429153.3333333 
28313.695413981 1369783.3333333 
28596.832368121 1304873.3333333 
28882.800691802 1259983.3333333 
29171.62869872 1209196.6666667 
29463.344985707 1160966.6666667 
29757.978435564      1115070 
30055.55821992      1065650 
30356.113802119 1026843.3333333 
30659.67494014       990337 
30966.271689541 952727.33333333 
31275.934406437       916823 
31588.693750501       882598 
31904.580688006     850997.8 
32223.626494886       813781 
32545.862759835       784191 
32871.321387434     749205.5 
33200.034601308     720843.5 
33532.034947321       695384 
33867.355296794     671181.5 
34206.028849762     640428.5 
34548.08913826       618460 
34893.570029642     597513.5 
35242.505729939       570887 
35594.930787238     545722.5 
35950.880095111     521925.5 
36310.388896062       504871 
36673.492785022       488603 
37040.227712872       466020 
37410.629990001       445244 
37784.736289901       429505 
38162.5836528     411838.5 
38544.209489328     395069.5 
38929.651584221       378882 
39318.948100064       363975 
39712.137581064     349363.5 
40109.258956875     332507.5 
40510.351546444     322837.5 
40915.455061908     310418.5 
41324.609612527       297797 
41737.855708653     287321.5 
42155.234265739       276603 
42576.786608396       266346 
43002.55447448     256591.5 
43432.580019225     246349.5 
43866.905819417 236025.33333333 
44305.574877612       225744 
44748.630626388       217823 
45196.116932652     210199.5 
45648.078101978 201161.66666667 
46104.558882998     190335.5 
46565.604471828       184622 
47031.260516546       178258 
47501.573121712     170856.5 
47976.588852929       165227 
48456.354741458 158516.66666667 
48940.918288873     152118.5 
49430.327471761       146062 
49924.630746479       140284 
50423.877053944 134806.33333333 
50928.115824483       128440 
51437.396982728 124583.66666667 
51951.770952555       119870 
52471.288662081 115362.66666667 
52996.001548702 110222.66666667 
53525.961564189       106148 
54061.221179831 102273.33333333 
54601.833391629      97845.2 
55147.851725545     94330.15 
55699.330242801      90984.4 
56256.323545229 87154.666666667 
56818.886780681 83487.133333333 
57387.075648488 80079.266666667 
57960.946404973      76815.7 
58540.555869022      73146.1 
59125.961427713      70639.6 
59717.22104199 67967.466666667 
60314.39325241      65300.1 
60917.537184934 62762.366666667 
61526.712556783 60345.933333333 
62141.979682351 58036.133333333 
62763.399479174 55706.033333333 
63391.033473966      53760.8 
64024.943808706 51353.214285714 
64665.193246793      49552.7 
65311.845179261     47755.25 
65964.963631053     45477.15 
66624.613267364        43853 
67290.859400038      42170.9 
67963.767994038     40347.85 
68643.405673978      38947.8 
69329.839730718     37614.55 
70023.138128025      35920.2 
70723.369509305      34320.1 
71430.603204399      33175.6 
72144.909236443      32082.4 
72866.358328807      30691.7 
73595.021912095     29370.85 
74330.972131216     27570.85 
75074.281852528     26928.35 
75825.024671053      26098.6 
76583.274917764     25287.35 
77349.107666942     24251.25 
78122.598743611     23268.45 
78903.824731047     22334.65 
79692.862978358      21446.9 
80489.791608141     20602.75 
81294.689524223     19789.35 
82107.636419465     19035.25 
82928.712783659     18307.35 
83757.999911496      17613.5 
84595.579910611      16793.6 
85441.535709717      16017.5 
86295.951066814      15408.2 
87158.910577482      14765.1 
88030.499683257        14333 
88910.80468009     13821.35 
89799.912726891 13214.066666667 
90697.91185416      12637.7 
91604.890972701     12199.85 
92520.939882428 11679.566666667 
93446.149281253      11151.9 
94380.610774065      10808.8 
95324.416881806 10361.166666667 
96277.661050624     9934.745 
97240.43766113      9531.48 
98212.842037741     9147.165 
99194.970458119     8853.845 
100186.9201627      8641.49 
199060.83304441      528.222 
399467.9878358      31.9396 
594753.39981818       6.1879 
793700.71765891      1.93145 
997811.18987739      0.78292 
1193529.3359837     0.374402 
1399507.0114645     0.200667 
