#  WAVELENGTH	        FLUX	
#  (ANGSTROM)	(ERG/CM2/S/A)	
############	############	
429.23803031605  7.46369E-25 
437.8657147254  5.04886E-24 
446.66681559138  2.63432E-23 
455.64481858477  1.09227E-22 
469.4513122327  4.95959E-22 
478.88728360858  2.10554E-21 
488.51291800911  8.40165E-21 
498.3320276611  3.15819E-20 
503.31534793771  9.03113E-20 
508.34850141708  2.14259E-19 
518.56630629557  5.63424E-19 
528.98948905211   1.8178E-18 
539.62217778206  5.51156E-18 
545.01839955988  1.62112E-17 
555.97326939103  4.54743E-17 
567.14833210579  1.22689E-16 
578.54801358112  3.15406E-16 
584.33349371693   8.0095E-16 
596.07859694064  1.94466E-15 
608.05977673914  4.58302E-15 
614.14037450653  1.04659E-14 
626.48459603412  2.32379E-14 
639.0769364144  5.02359E-14 
645.46770577855   1.0585E-13 
651.92238283633  1.88729E-13 
658.44160666469  3.08337E-13 
671.67628295866  6.12698E-13 
678.39304578824  1.19219E-12 
692.02874600859  2.26768E-12 
698.94903346867   4.1953E-12 
712.99790904139  8.20397E-12 
720.12788813181  1.47075E-11 
734.60245868325  2.44954E-11 
741.94848327009  4.24653E-11 
749.36796810279  7.24745E-11 
764.43026426165  1.22117E-10 
772.07456690427  2.02018E-10 
779.79531257331  3.30638E-10 
787.59326569905  5.25716E-10 
803.4238903396  8.39878E-10 
811.45812924299   1.32758E-9 
819.57271053542   2.05998E-9 
827.76843764078   3.15963E-9 
844.40658323736   4.79032E-9 
852.85064906973   7.18752E-9 
861.37915556043   1.06616E-8 
869.99294711603   1.55878E-8 
878.69287658719   2.27647E-8 
887.47980535306   3.28102E-8 
896.3546034066   4.68024E-8 
914.37133093507   1.14393E-5 
923.51504424442   3.94887E-5 
932.75019468686   5.64734E-5 
942.07769663373   8.24861E-5 
951.49847360007  0.000119332 
961.01345833607  0.000169245 
970.62359291943  0.000232948 
980.32982884862  0.000320484 
990.13312713711  0.000436465 
1000.0344584085  0.000616553 
1010.0348029926   0.00083411 
1020.1351510225   0.00109545 
1030.3365025327   0.00150664 
1040.639867558   0.00200356 
1051.0462662336   0.00264853 
1061.556728896   0.00347193 
1072.1722961849    0.0045695 
1082.8940191468    0.0059683 
1093.7229593382   0.00767616 
1104.6601889316    0.0417695 
1115.7067908209    0.0894122 
1126.8638587291     0.128888 
1138.1324973164     0.167907 
1149.5138222896     0.194671 
1161.0089605125      0.26757 
1172.6190501176     0.336502 
1184.3452406188     0.359261 
1196.188693025     0.445659 
1208.1505799552     0.174694 
1220.2320857548     0.592852 
1232.4344066123     0.913752 
1244.7587506785      1.30314 
1257.2063381852      1.50549 
1269.7784015671      1.83693 
1282.4761855828     2.332445 
1295.3009474386      2.66207 
1308.253956913      3.26138 
1321.3364964821      3.47819 
1334.5498614469      4.22526 
1347.8953600614      5.21075 
1361.374313662      5.62863 
1374.9880567986     6.468895 
1388.7379373666      7.56508 
1402.6253167403     9.662155 
1416.6515699077      11.7583 
1430.8180856068 14.953511764706 
1445.1262664628 17.329038461538 
1459.5775291275      21.9994 
1474.1733044187      23.9833 
1488.9150374629      33.1669 
1503.8041878376 37.165686363636 
1518.8422297159      46.0604 
1534.0306520131     112.5445 
1549.3709585332      183.206 
1564.8646681186      234.688 
1580.5133147997     380.9955 
1596.3184479477      444.044 
1612.2816324272      508.583 
1628.4044487515      611.019 
1644.688493239     696.6215 
1661.1353781714 965.30027272727 
1677.7467319531      1832.15 
1694.5241992726     3172.175 
1711.4694412654     4003.415 
1728.584135678      6020.57 
1745.8699770348      9077.18 
1763.3286768051      8466.66 
1780.9619635732        12721 
1798.7715832089     13931.05 
1816.759299041      16073.1 
1834.9268920314     15533.95 
1853.2761609517      20685.4 
1871.8089225613      24815.3 
1890.5270117869     31430.05 
1909.4322819047     34604.75 
1928.5266047238        34192 
1947.811870771 52678.954545455 
1967.2899894787 56499.558823529 
1986.9628893735 63106.457142857 
2006.8325182673      64676.3 
2026.9008434499      84722.1 
2047.1698518844      91652.1 
2067.6415504033   107612.595 
2088.3179659073       208350 
2109.2011455664     371576.5 
2130.293157022       427321 
2151.5960885923       450386 
2173.1120494782       515745 
2194.843169973 513035.66666667 
2216.7916016727       617154 
2238.9595176894       580953 
2261.3491128663     445214.5 
2283.962603995 634699.66666667 
2306.8022300349       576408 
2329.8702523353     361231.5 
2353.1689548586 451954.33333333 
2376.7006444072     303167.5 
2400.4676508513       364576 
2424.4723273598 709837.66666667 
2448.7170506334     823966.5 
2473.2042211397       500829 
2497.9362633511 522051.30434783 
2522.9156259846 346606.85185185 
2548.1447822445     733289.5 
2573.6262300669 1055593.3333333 
2599.3624923676 886418.33333333 
2625.3561172913      2356265 
2651.6096784642 2845796.6666667 
2678.1257752488      2604240 
2704.9070330013 2040833.3333333 
2731.9561033313      1426890 
2759.2756643647 1709726.6666667 
2786.8684210083     571852.5 
2814.7371052184 2523496.6666667 
2842.8844762706      1579962 
2871.3133210333      3627420 
2900.0264542436      5528980 
2929.026718786      4744815 
2958.3169859739      5087060 
2987.9001558336      4975000 
3017.779157392      5513330 
3047.9569489659      5841080 
3078.4365184556      5779130 
3109.2208836401      6385040 
3140.3130924765      6214485 
3171.7162234013      5596860 
3203.4333856353      5574070 
3235.4677194916      6753150 
3267.8223966866      7797210 
3300.5006206534      7491485 
3333.50562686      7309690 
3366.8406831286      6314455 
3400.5090899598      6642350 
3434.5141808594      7145280 
3468.859322668      7640345 
3503.5479158947      7891305 
3538.5833950537      7572155 
3573.9692290042      6493050 
3609.7089212942      7386520 
3645.8060105072      8867490 
3682.2640706123      8722730 
3719.0867113184      6978195 
3756.2775784316      8764000 
3793.8403542159      7065285 
3831.778757758      7505755 
3870.0965453356      8284430 
3908.797510789      7686835 
3947.8854858969      7318550 
3987.3643407558     12250500 
4027.2379841634     12376400 
4067.510364005     12435750 
4108.1854676451     12634800 
4149.2673223215 13085733.333333 
4190.7599955447     12538600 
4232.6675955002     12370550 
4274.9942714552     10212730 
4317.7442141697     12105600 
4360.9216563114     13202000 
4404.5308728746     13416000 
4448.5761816033     14095800 
4493.0619434193     15113300 
4537.9925628535     15193500 
4583.3724884821     14810300 
4629.2062133669 14857066.666667 
4675.4982755006     14265600 
4722.2532582556     15006950 
4769.4757908381     14997500 
4817.1705487465     14271500 
4865.342254234 13220133.333333 
4913.9956767763     14073250 
4963.1356335441     13499200 
5012.7669898795     13541600 
5062.8946597783     13830000 
5113.5236063761     13099850 
5164.6588424398     11875100 
5216.3054308642     13205900 
5268.4684851729 12802066.666667 
5321.1531700246 12764766.666667 
5374.3647017249     12669200 
5428.1083487421 13044366.666667 
5482.3894322295     12737100 
5537.2133265518     12601900 
5592.5854598173     12707250 
5648.5113144155 12436866.666667 
5704.9964275597     12617500 
5762.0463918353 12469433.333333 
5819.6668557536     12492500 
5877.8635243112 11882233.333333 
5936.6421595543 12104866.666667 
5996.0085811498     11819400 
6055.9686669613 11641466.666667 
6116.5283536309 10873066.666667 
6177.6936371672     11221900 
6239.4705735389 10960233.333333 
6301.8652792743 10713133.333333 
6364.883932067 10621266.666667 
6428.5327713877     10383500 
6492.8180991016 10165873.333333 
6557.7462800926      9585280 
6623.3237428935 10050093.333333 
6689.5569803225      9904005 
6756.4525501257 9684616.6666667 
6824.0170756269    9514032.5 
6892.2572463832 9339993.3333333 
6961.179818847    9087337.5 
7030.7916170355 8967423.3333333 
7101.0995332059      8718640 
7172.1105285379      8462030 
7243.8316338233    8397682.5 
7316.2699501615 8315313.3333333 
7389.4326496631    7992157.5 
7463.3269761598      7989170 
7537.9602459214      7827265 
7613.3398483806      7656250 
7689.4732468644      7504810 
7766.367979333      7406260 
7844.0316591264      7252625 
7922.4719757176    7029482.5 
8001.6966954748      6922315 
8081.7136624296    6809782.5 
8162.5307990539      6554430 
8244.1561070444    6507932.5 
8326.5976681148      6337095 
8409.863644796      6185870 
8493.9622812439      5671165 
8578.9019040564    5905492.5 
8664.6909230969      5538328 
8751.3378323279    5652892.5 
8838.8512106512      5517555 
8927.2397227577      5394004 
9016.5121199853    5287027.5 
9106.6772411851      5254426 
9197.744013597    4915067.5 
9289.721453733      5049980 
9382.6186682703      4833172 
9476.444854953      4686446 
9571.2093035025    4660562.5 
9666.9213965375      4577592 
9763.5906105029      4494410 
9861.226516608      4384380 
9959.838781774 4280236.6666667 
10059.437169592      4134690 
10160.031541288      4084280 
10261.631856701      4030620 
10364.248175268      3931915 
10467.89065702      3821275 
10572.56956359      3687150 
10678.295259226      3574800 
10785.078211819      3438890 
10892.928993937      3285500 
11001.858283876      3355790 
11111.876866715      3286085 
11222.995635382      3178980 
11335.225591736      3085915 
11448.577847653      3081565 
11563.06362613 2956673.3333333 
11678.694262391      2899435 
11795.481205015      2804555 
11913.436017065 2755173.3333333 
12032.570377236      2678985 
12152.896081008      2681000 
12274.425041818 2601716.6666667 
12397.169292236      2541680 
12521.140985159      2472070 
12646.35239501      2410475 
12772.81591896 2268136.6666667 
12900.54407815 2282396.6666667 
13029.549518932      2228955 
13159.845014121 2171556.6666667 
13291.443464262      2127705 
13424.357898905 2087873.3333333 
13558.601477894 2010706.6666667 
13694.187492673      1959910 
13831.129367599      1926535 
13969.440661275 1874423.3333333 
14109.135067888 1810536.6666667 
14250.226418567 1759296.6666667 
14392.728682753      1690080 
14536.65596958      1667417 
14682.022529276      1602990 
14828.842754569 1564783.3333333 
14977.131182115 1507863.3333333 
15126.902493936      1499380 
15278.171518875      1458860 
15430.953234064 1413346.6666667 
15585.262766404 1377516.6666667 
15741.115394068 1294536.6666667 
15898.526548009 1283491.4285714 
16057.511813489      1244470 
16218.086931624      1220645 
16380.26780094      1169660 
16544.07047895      1162585 
16709.511183739      1085895 
16876.606295577      1091260 
17045.372358532      1045545 
17215.826082118       968893 
17387.984342939       953397 
17561.864186368       934210 
17737.482828232       908590 
17914.857656514       873406 
18094.006233079       810135 
18274.94629541       799305 
18457.695758364       779631 
18642.272715948     722282.5 
18828.695443107       713413 
19016.982397539     702894.5 
19207.152221514     670196.5 
19399.223743729     627464.5 
19593.215981166     623767.5 
19789.148140978       605704 
19987.039622388       589004 
20186.910018612     560598.5 
20388.779118798     547524.5 
20592.666909986     524911.5 
20798.593579086     505331.5 
21006.579514877     491268.5 
21216.645310025     473433.5 
21428.811763126     458205.5 
21643.099880757 425902.33333333 
21859.530879564     420222.5 
22078.12618836       408199 
22298.907450244       394575 
22521.896524746     379847.5 
22747.115489993 364787.66666667 
22974.586644893       351508 
23204.332511342       338761 
23436.375836456 326664.66666667 
23670.73959482       309825 
23907.446990769       304021 
24146.521460676 290242.33333333 
24387.986675283       278388 
24631.866542036 268394.66666667 
24878.185207456       259761 
25126.967059531 251039.66666667 
25378.236730126     239926.5 
25632.019097427       231722 
25888.339288402       224713 
26147.222681286       211546 
26408.694908098 206048.33333333 
26672.781857179       201001 
26939.509675751 194599.66666667 
27208.904772509 186772.33333333 
27480.993820234 178040.33333333 
27755.803758436     173366.5 
28033.361796021 167916.66666667 
28313.695413981 161135.33333333 
28596.832368121 153628.33333333 
28882.800691802       149033 
29171.62869872 142938.66666667 
29463.344985707 137980.66666667 
29757.978435564 132516.66666667 
30055.55821992       126879 
30356.113802119       122413 
30659.67494014 118345.66666667 
30966.271689541       113835 
31275.934406437 110043.33333333 
31588.693750501       106110 
31904.580688006     102613.4 
32223.626494886      98253.5 
32545.862759835        94696 
32871.321387434      90425.2 
33200.034601308     87187.75 
33532.034947321      84143.9 
33867.355296794     81212.45 
34206.028849762      78110.9 
34548.08913826      75509.3 
34893.570029642     73147.85 
35242.505729939     69958.65 
35594.930787238        66942 
35950.880095111     64339.35 
36310.388896062      61812.4 
36673.492785022      59750.1 
37040.227712872     57044.05 
37410.629990001      54505.6 
37784.736289901      52915.3 
38162.5836528     51158.25 
38544.209489328      48950.7 
38929.651584221     47276.05 
39318.948100064     45265.65 
39712.137581064      43340.7 
40109.258956875      41606.1 
40510.351546444     40321.35 
40915.455061908      39016.2 
41324.609612527      37486.8 
41737.855708653      36043.3 
42155.234265739      34940.8 
42576.786608396      33555.9 
43002.55447448      32015.9 
43432.580019225      30473.3 
43866.905819417      29062.6 
44305.574877612     27725.85 
44748.630626388     26868.75 
45196.116932652      25788.3 
45648.078101978      24775.4 
46104.558882998        23645 
46565.604471828     23041.25 
47031.260516546 22238.666666667 
47501.573121712     21366.05 
47976.588852929      20707.8 
48456.354741458 19918.433333333 
48940.918288873      19173.7 
49430.327471761 18449.533333333 
49924.630746479     17765.45 
50423.877053944 17098.233333333 
50928.115824483     16414.45 
51437.396982728 15893.033333333 
51951.770952555      15279.9 
52471.288662081 14771.166666667 
52996.001548702 14142.866666667 
53525.961564189     13628.25 
54061.221179831        13168 
54601.833391629      12628.7 
55147.851725545      12214.6 
55699.330242801 11793.533333333 
56256.323545229      11343.4 
56818.886780681      10890.6 
57387.075648488 10471.433333333 
57960.946404973     10069.46 
58540.555869022 9644.9133333333 
59125.961427713 9297.1433333333 
59717.22104199      8957.98 
60314.39325241      8618.93 
60917.537184934 8292.1266666667 
61526.712556783      8001.16 
62141.979682351 7686.8466666667 
62763.399479174 7417.1366666667 
63391.033473966 7157.6633333333 
64024.943808706      6845.57 
64665.193246793      6606.65 
65311.845179261       6388.4 
65964.963631053     6092.185 
66624.613267364      5878.48 
67290.859400038     5674.415 
67963.767994038     5423.995 
68643.405673978      5241.69 
69329.839730718      5066.52 
70023.138128025     4841.645 
70723.369509305     4636.215 
71430.603204399      4485.34 
72144.909236443      4339.66 
72866.358328807     4157.295 
73595.021912095      3983.52 
74330.972131216     3797.125 
75074.281852528      3662.46 
75825.024671053      3551.55 
76583.274917764      3442.65 
77349.107666942      3307.34 
78122.598743611      3176.78 
78903.824731047      3052.07 
79692.862978358     2932.445 
80489.791608141      2819.45 
81294.689524223      2710.04 
82107.636419465     2611.095 
82928.712783659     2512.175 
83757.999911496       2419.9 
84595.579910611 2310.7266666667 
85441.535709717     2206.165 
86295.951066814     2127.735 
87158.910577482      2050.65 
88030.499683257     1977.595 
88910.80468009     1909.225 
89799.912726891 1827.0766666667 
90697.91185416      1748.66 
91604.890972701      1691.22 
92520.939882428 1620.6733333333 
93446.149281253     1553.655 
94380.610774065     1502.435 
95324.416881806 1441.1033333333 
96277.661050624     1383.655 
97240.43766113 1327.3066666667 
98212.842037741     1276.255 
99194.970458119      1235.72 
100186.9201627      1206.96 
199060.83304441      77.5161 
399467.9878358      4.83511 
594753.39981818     0.947938 
793700.71765891     0.297764 
997811.18987739     0.121172 
1193529.3359837    0.0580977 
1399507.0114645    0.0311955 
