#  WAVELENGTH	        FLUX	
#  (ANGSTROM)	(ERG/CM2/S/A)	
############	############	
344.8482052779  4.07235E-24 
355.29745074603  2.81307E-23 
362.43892950602  1.76084E-22 
373.42119150899  1.00325E-21 
384.7362270329  6.27169E-21 
392.46942519626  3.55083E-20 
404.36164124913   1.8363E-19 
412.48931023824  7.49961E-19 
420.78034537403  2.48165E-18 
429.23803031605  7.83085E-18 
437.8657147254  3.53677E-17 
446.66681559138  1.30025E-16 
455.64481858477  3.98523E-16 
469.4513122327  1.31086E-15 
478.88728360858  4.08779E-15 
488.51291800911  1.21301E-14 
498.3320276611  3.43142E-14 
503.31534793771  8.28896E-14 
508.34850141708  1.68214E-13 
518.56630629557  3.58828E-13 
528.98948905211  8.99485E-13 
539.62217778206  2.13248E-12 
545.01839955988  4.96873E-12 
555.97326939103  1.11298E-11 
567.14833210579  2.41437E-11 
578.54801358112  5.02212E-11 
584.33349371693  1.04082E-10 
596.07859694064  2.07484E-10 
608.05977673914  4.04633E-10 
614.14037450653  7.68533E-10 
626.48459603412   1.42757E-9 
639.0769364144   2.59379E-9 
645.46770577855   4.62679E-9 
651.92238283633   7.24209E-9 
658.44160666469   1.05754E-8 
671.67628295866   1.80012E-8 
678.39304578824   3.01055E-8 
692.02874600859   4.95167E-8 
698.94903346867   7.93898E-8 
712.99790904139   1.33487E-7 
720.12788813181   2.09309E-7 
734.60245868325   3.09934E-7 
741.94848327009   4.72839E-7 
749.36796810279   7.13113E-7 
764.43026426165   1.06332E-6 
772.07456690427   1.56657E-6 
779.79531257331   2.28719E-6 
787.59326569905   3.24948E-6 
803.4238903396   4.65458E-6 
811.45812924299    6.6223E-6 
819.57271053542   9.26458E-6 
827.76843764078   1.28382E-5 
844.40658323736   1.76398E-5 
852.85064906973    2.4027E-5 
861.37915556043   3.24483E-5 
869.99294711603   4.31527E-5 
878.69287658719   5.77487E-5 
887.47980535306   7.62231E-5 
896.3546034066   9.89219E-5 
914.37133093507    0.0361136 
923.51504424442     0.099952 
932.75019468686     0.131654 
942.07769663373       0.1767 
951.49847360007      0.23913 
961.01345833607     0.312791 
970.62359291943     0.400972 
980.32982884862     0.511845 
990.13312713711     0.641985 
1000.0344584085     0.849414 
1010.0348029926      1.07546 
1020.1351510225      1.31583 
1030.3365025327      1.68142 
1040.639867558      2.10077 
1051.0462662336      2.60849 
1061.556728896      3.18946 
1072.1722961849      3.95597 
1082.8940191468      4.86326 
1093.7229593382      5.87266 
1104.6601889316     31.90285 
1115.7067908209      70.3586 
1126.8638587291      98.4941 
1138.1324973164      124.787 
1149.5138222896      139.147 
1161.0089605125      191.548 
1172.6190501176      230.525 
1184.3452406188      200.413 
1196.188693025      196.418 
1208.1505799552      57.8815 
1220.2320857548      235.574 
1232.4344066123       445.86 
1244.7587506785      2248.62 
1257.2063381852      2800.83 
1269.7784015671      4941.51 
1282.4761855828      7804.66 
1295.3009474386      5960.11 
1308.253956913      10393.1 
1321.3364964821      12357.5 
1334.5498614469      15088.6 
1347.8953600614      17097.7 
1361.374313662      18444.6 
1374.9880567986      20464.1 
1388.7379373666        24371 
1402.6253167403      27585.9 
1416.6515699077      31774.7 
1430.8180856068 34268.764705882 
1445.1262664628 45052.507692308 
1459.5775291275      48037.8 
1474.1733044187      56381.8 
1488.9150374629      69454.1 
1503.8041878376 74428.263636364 
1518.8422297159      69638.2 
1534.0306520131       167687 
1549.3709585332       225631 
1564.8646681186     293332.5 
1580.5133147997       611812 
1596.3184479477       641343 
1612.2816324272     545962.5 
1628.4044487515       626084 
1644.688493239     777003.5 
1661.1353781714 1178365.5909091 
1677.7467319531      2923510 
1694.5241992726      3129130 
1711.4694412654      7192545 
1728.584135678      9618090 
1745.8699770348     12458900 
1763.3286768051      9494440 
1780.9619635732     12912350 
1798.7715832089     12558550 
1816.759299041     11248500 
1834.9268920314      9279010 
1853.2761609517     12389200 
1871.8089225613     12438450 
1890.5270117869     13708150 
1909.4322819047     12972350 
1928.5266047238     10746935 
1947.811870771 16488954.545455 
1967.2899894787 16456694.117647 
1986.9628893735 15371123.809524 
2006.8325182673     12930000 
2026.9008434499     16254850 
2047.1698518844     14855900 
2067.6415504033     19209190 
2088.3179659073     16911100 
2109.2011455664     17338650 
2130.293157022     15007850 
2151.5960885923     16247750 
2173.1120494782     15938650 
2194.843169973 16181933.333333 
2216.7916016727     15042250 
2238.9595176894     13881050 
2261.3491128663     13849250 
2283.962603995 14993933.333333 
2306.8022300349     13280150 
2329.8702523353      8021895 
2353.1689548586 9375753.3333333 
2376.7006444072      6326510 
2400.4676508513      7638745 
2424.4723273598 12773933.333333 
2448.7170506334     13299850 
2473.2042211397 11698866.666667 
2497.9362633511 13218191.304348 
2522.9156259846 8868671.8518519 
2548.1447822445     10747610 
2573.6262300669 11545133.333333 
2599.3624923676      9993850 
2625.3561172913     16450400 
2651.6096784642     17623900 
2678.1257752488     16215850 
2704.9070330013 15554433.333333 
2731.9561033313     12435920 
2759.2756643647     13892600 
2786.8684210083      5456550 
2814.7371052184     18036500 
2842.8844762706 17173433.333333 
2871.3133210333 18142866.666667 
2900.0264542436     21635900 
2929.026718786     19806350 
2958.3169859739     21497900 
2987.9001558336     22125000 
3017.779157392     22199500 
3047.9569489659     22327350 
3078.4365184556     23412400 
3109.2208836401     22262050 
3140.3130924765     23072950 
3171.7162234013     21015400 
3203.4333856353     21465350 
3235.4677194916     22256800 
3267.8223966866     23078000 
3300.5006206534     23475800 
3333.50562686     22847200 
3366.8406831286     22496650 
3400.5090899598     23037900 
3434.5141808594     23113100 
3468.859322668     22675050 
3503.5479158947     23288000 
3538.5833950537     23490350 
3573.9692290042     22531400 
3609.7089212942     22779920 
3645.8060105072 23797233.333333 
3682.2640706123     23582150 
3719.0867113184     28850550 
3756.2775784316     39282850 
3793.8403542159     45580150 
3831.778757758     60453300 
3870.0965453356     37237200 
3908.797510789     55140650 
3947.8854858969     46133900 
3987.3643407558     66760800 
4027.2379841634     69967350 
4067.510364005     60021450 
4108.1854676451     52338550 
4149.2673223215 67869133.333333 
4190.7599955447     65899650 
4232.6675955002     63543400 
4274.9942714552     59933150 
4317.7442141697     41740450 
4360.9216563114     59127450 
4404.5308728746     58291650 
4448.5761816033 58714133.333333 
4493.0619434193     58760650 
4537.9925628535     57495550 
4583.3724884821     56253050 
4629.2062133669 55262633.333333 
4675.4982755006     51588750 
4722.2532582556     53213150 
4769.4757908381 51163966.666667 
4817.1705487465     42503650 
4865.342254234 40264466.666667 
4913.9956767763     46804500 
4963.1356335441 45331333.333333 
5012.7669898795     44142150 
5062.8946597783 44286933.333333 
5113.5236063761     42148300 
5164.6588424398 40627566.666667 
5216.3054308642     40460450 
5268.4684851729 38670833.333333 
5321.1531700246 38075233.333333 
5374.3647017249     37241300 
5428.1083487421 37073533.333333 
5482.3894322295     36112300 
5537.2133265518 35164466.666667 
5592.5854598173     34699000 
5648.5113144155     33682300 
5704.9964275597     33232900 
5762.0463918353     32356500 
5819.6668557536 31599033.333333 
5877.8635243112 30534133.333333 
5936.6421595543 29848566.666667 
5996.0085811498 28857233.333333 
6055.9686669613     28282800 
6116.5283536309 26848633.333333 
6177.6936371672 26809233.333333 
6239.4705735389     25932000 
6301.8652792743 25216666.666667 
6364.883932067     24601400 
6428.5327713877     23726000 
6492.8180991016     21712100 
6557.7462800926 19598366.666667 
6623.3237428935     22124100 
6689.5569803225     21576700 
6756.4525501257 21081766.666667 
6824.0170756269     20449450 
6892.2572463832 19897766.666667 
6961.179818847     19255425 
7030.7916170355     18808700 
7101.0995332059     18049900 
7172.1105285379     17644400 
7243.8316338233     17169075 
7316.2699501615 16814666.666667 
7389.4326496631     16167500 
7463.3269761598     15736925 
7537.9602459214     15427875 
7613.3398483806 14951866.666667 
7689.4732468644     14569125 
7766.367979333     14101325 
7844.0316591264     13631925 
7922.4719757176     13242175 
8001.6966954748     12949075 
8081.7136624296     12642000 
8162.5307990539     12116325 
8244.1561070444     11924675 
8326.5976681148     11588000 
8409.863644796     11142580 
8493.9622812439     10453745 
8578.9019040564     10591825 
8664.6909230969      9955612 
8751.3378323279     10871775 
8838.8512106512      9787535 
8927.2397227577     10145720 
9016.5121199853    9818202.5 
9106.6772411851     10181510 
9197.744013597    8544722.5 
9289.721453733      9737406 
9382.6186682703      9284944 
9476.444854953      8168116 
9571.2093035025    8653742.5 
9666.9213965375      8527788 
9763.5906105029      8348730 
9861.226516608      8001790 
9959.838781774 7472470.6666667 
10059.437169592      7018590 
10160.031541288      7353605 
10261.631856701      7165995 
10364.248175268      6937125 
10467.89065702      6624740 
10572.56956359 6397333.3333333 
10678.295259226      6156135 
10785.078211819      5931170 
10892.928993937      5180250 
11001.858283876      5684035 
11111.876866715      5533700 
11222.995635382 5269973.3333333 
11335.225591736      5095935 
11448.577847653      5030785 
11563.06362613 4775693.3333333 
11678.694262391      4627550 
11795.481205015      4472335 
11913.436017065 4382156.6666667 
12032.570377236      4218845 
12152.896081008      4123555 
12274.425041818      3982980 
12397.169292236      3865195 
12521.140985159      3712960 
12646.35239501      3604825 
12772.81591896 3229626.6666667 
12900.54407815 3358116.6666667 
13029.549518932      3268085 
13159.845014121 3157766.6666667 
13291.443464262      3069440 
13424.357898905      2968370 
13558.601477894 2851506.6666667 
13694.187492673 2735743.3333333 
13831.129367599      2668850 
13969.440661275 2590983.3333333 
14109.135067888      2494900 
14250.226418567 2407996.6666667 
14392.728682753 2291323.3333333 
14536.65596958 2238664.3333333 
14682.022529276 2151456.6666667 
14828.842754569      2087080 
14977.131182115 2013273.3333333 
15126.902493936 1954653.3333333 
15278.171518875      1877640 
15430.953234064 1810143.3333333 
15585.262766404      1746630 
15741.115394068 1675073.3333333 
15898.526548009 1659952.8571429 
16057.511813489      1531200 
16218.086931624      1571825 
16380.26780094      1421430 
16544.07047895      1503240 
16709.511183739      1349565 
16876.606295577      1395320 
17045.372358532      1350900 
17215.826082118      1213760 
17387.984342939      1219260 
17561.864186368      1197100 
17737.482828232      1164280 
17914.857656514      1115760 
18094.006233079      1004613 
18274.94629541      1031870 
18457.695758364       996681 
18642.272715948     916357.5 
18828.695443107     921866.5 
19016.982397539     903082.5 
19207.152221514       860746 
19399.223743729     784502.5 
19593.215981166     802601.5 
19789.148140978     775543.5 
19987.039622388     748755.5 
20186.910018612     719488.5 
20388.779118798     696037.5 
20592.666909986       668963 
20798.593579086     646072.5 
21006.579514877     622267.5 
21216.645310025     600001.5 
21428.811763126     578236.5 
21643.099880757       533235 
21859.530879564       533316 
22078.12618836       515553 
22298.907450244       499613 
22521.896524746     481264.5 
22747.115489993 462837.66666667 
22974.586644893     445043.5 
23204.332511342       431319 
23436.375836456 414717.66666667 
23670.73959482       397928 
23907.446990769       385716 
24146.521460676 370701.33333333 
24387.986675283     356346.5 
24631.866542036 342765.66666667 
24878.185207456     329017.5 
25126.967059531 317175.66666667 
25378.236730126       307280 
25632.019097427 293044.33333333 
25888.339288402       285185 
26147.222681286       261424 
26408.694908098 264353.33333333 
26672.781857179     246393.5 
26939.509675751 248864.33333333 
27208.904772509 238264.66666667 
27480.993820234       220542 
27755.803758436       221744 
28033.361796021       214428 
28313.695413981       205497 
28596.832368121 189663.33333333 
28882.800691802 189717.66666667 
29171.62869872       182739 
29463.344985707       175922 
29757.978435564       169120 
30055.55821992 158531.66666667 
30356.113802119       154013 
30659.67494014 150781.66666667 
30966.271689541 145117.33333333 
31275.934406437       140062 
31588.693750501       135262 
31904.580688006     130645.2 
32223.626494886       125237 
32545.862759835       120539 
32871.321387434       112221 
33200.034601308       110817 
33532.034947321       106923 
33867.355296794     103424.5 
34206.028849762      99231.6 
34548.08913826      95999.5 
34893.570029642      92966.8 
35242.505729939      88977.5 
35594.930787238     85152.45 
35950.880095111      81610.4 
36310.388896062      78889.2 
36673.492785022      76331.2 
37040.227712872      72358.8 
37410.629990001      68905.8 
37784.736289901     67472.75 
38162.5836528      64988.7 
38544.209489328     62438.55 
38929.651584221     59632.45 
39318.948100064     57959.45 
39712.137581064      55198.4 
40109.258956875      51845.8 
40510.351546444      51525.3 
40915.455061908     49878.55 
41324.609612527     46939.25 
41737.855708653     46055.75 
42155.234265739      44651.7 
42576.786608396     43068.05 
43002.55447448     41517.35 
43432.580019225      39203.7 
43866.905819417      38106.1 
44305.574877612        36691 
44748.630626388     35429.65 
45196.116932652     34234.05 
45648.078101978      32776.6 
46104.558882998        30571 
46565.604471828     29499.45 
47031.260516546      29164.1 
47501.573121712     28015.15 
47976.588852929      27131.3 
48456.354741458 26067.333333333 
48940.918288873     25037.25 
49430.327471761 24075.533333333 
49924.630746479      23145.3 
50423.877053944 22263.633333333 
50928.115824483     20834.65 
51437.396982728 20591.766666667 
51951.770952555      19892.3 
52471.288662081 19141.833333333 
52996.001548702      18368.6 
53525.961564189     17604.75 
54061.221179831 17077.966666667 
54601.833391629 16335.233333333 
55147.851725545      15689.6 
55699.330242801 15237.366666667 
56256.323545229      14627.5 
56818.886780681 13914.966666667 
57387.075648488 13471.633333333 
57960.946404973      12933.8 
58540.555869022 12173.433333333 
59125.961427713      11767.2 
59717.22104199 11471.733333333 
60314.39325241 11048.733333333 
60917.537184934 10634.933333333 
61526.712556783 10241.666666667 
62141.979682351 9824.5566666667 
62763.399479174 9340.1333333333 
63391.033473966 9148.6333333333 
64024.943808706 8754.0771428571 
64665.193246793      8450.43 
65311.845179261      8155.93 
65964.963631053       7774.4 
66624.613267364      7501.47 
67290.859400038     7136.665 
67963.767994038     6909.005 
68643.405673978      6679.71 
69329.839730718     6453.345 
70023.138128025      6173.37 
70723.369509305      5902.87 
71430.603204399      5714.64 
72144.909236443     5519.355 
72866.358328807      5295.67 
73595.021912095      5064.83 
74330.972131216      4676.84 
75074.281852528     4645.855 
75825.024671053       4522.7 
76583.274917764     4385.545 
77349.107666942     4192.765 
78122.598743611      4042.57 
78903.824731047      3886.57 
79692.862978358      3734.41 
80489.791608141      3590.54 
81294.689524223      3429.52 
82107.636419465      3324.31 
82928.712783659      3198.35 
83757.999911496      3078.48 
84595.579910611 2940.9366666667 
85441.535709717     2805.625 
86295.951066814     2679.045 
87158.910577482      2565.46 
88030.499683257     2517.135 
88910.80468009     2430.475 
89799.912726891 2325.6066666667 
90697.91185416     2226.185 
91604.890972701       2151.2 
92520.939882428 2059.5866666667 
93446.149281253      1948.33 
94380.610774065      1909.13 
95324.416881806 1831.9666666667 
96277.661050624      1759.44 
97240.43766113 1688.2366666667 
98212.842037741      1620.51 
99194.970458119     1571.255 
100186.9201627      1534.16 
199060.83304441      97.9875 
399467.9878358      6.07901 
594753.39981818      1.18858 
793700.71765891     0.372762 
997811.18987739     0.151532 
1193529.3359837    0.0726043 
1399507.0114645    0.0389703 
