#  WAVELENGTH	        FLUX	
#  (ANGSTROM)	(ERG/CM2/S/A)	
############	############	
555.97326939103  1.35904E-24 
567.14833210579  4.87918E-24 
578.54801358112  1.65396E-23 
584.33349371693  5.48018E-23 
596.07859694064  1.72187E-22 
608.05977673914  5.20569E-22 
614.14037450653  1.51309E-21 
626.48459603412  4.24341E-21 
639.0769364144  1.15033E-20 
645.46770577855  3.01804E-20 
651.92238283633  6.38303E-20 
658.44160666469  1.20782E-19 
671.67628295866  2.94025E-19 
678.39304578824  6.96505E-19 
692.02874600859  1.60465E-18 
698.94903346867  3.58474E-18 
712.99790904139   8.5332E-18 
720.12788813181  1.82334E-17 
734.60245868325  3.54259E-17 
741.94848327009  7.25801E-17 
749.36796810279  1.45742E-16 
764.43026426165  2.87402E-16 
772.07456690427  5.54868E-16 
779.79531257331   1.0544E-15 
787.59326569905  1.94491E-15 
803.4238903396  3.58414E-15 
811.45812924299  6.49809E-15 
819.57271053542  1.15473E-14 
827.76843764078   2.0218E-14 
844.40658323736  3.48853E-14 
852.85064906973  5.93883E-14 
861.37915556043  9.96624E-14 
869.99294711603  1.64607E-13 
878.69287658719  2.70134E-13 
887.47980535306  4.36885E-13 
896.3546034066  6.97644E-13 
914.37133093507  7.31614E-10 
923.51504424442   2.66821E-9 
932.75019468686   4.00748E-9 
942.07769663373   6.36753E-9 
951.49847360007   1.03276E-8 
961.01345833607   1.63504E-8 
970.62359291943    2.4226E-8 
980.32982884862   3.51588E-8 
990.13312713711    5.1135E-8 
1000.0344584085   8.07152E-8 
1010.0348029926    1.1826E-7 
1020.1351510225   1.67947E-7 
1030.3365025327   2.50675E-7 
1040.639867558   3.58747E-7 
1051.0462662336   5.05714E-7 
1061.556728896   7.03424E-7 
1072.1722961849   1.00547E-6 
1082.8940191468   1.39677E-6 
1093.7229593382   1.86153E-6 
1104.6601889316  4.044485E-6 
1115.7067908209   7.06356E-6 
1126.8638587291   1.00486E-5 
1138.1324973164   1.35951E-5 
1149.5138222896   1.74914E-5 
1161.0089605125   2.42089E-5 
1172.6190501176   3.16719E-5 
1184.3452406188  4.195175E-5 
1196.188693025   5.69989E-5 
1208.1505799552   4.30571E-5 
1220.2320857548    9.1437E-5 
1232.4344066123  0.000131345 
1244.7587506785  0.000187191 
1257.2063381852  0.000247901 
1269.7784015671  0.000315427 
1282.4761855828 0.0004355835 
1295.3009474386  0.000566548 
1308.253956913  0.000737807 
1321.3364964821  0.000882457 
1334.5498614469  0.001222375 
1347.8953600614   0.00168156 
1361.374313662   0.00203183 
1374.9880567986   0.00264757 
1388.7379373666    0.0034763 
1402.6253167403   0.00488074 
1416.6515699077   0.00599057 
1430.8180856068 0.0083118282352941 
1445.1262664628 0.010013123076923 
1459.5775291275    0.0136074 
1474.1733044187    0.0165738 
1488.9150374629    0.0230991 
1503.8041878376 0.027950645454545 
1518.8422297159     0.038118 
1534.0306520131    0.1574145 
1549.3709585332     0.312366 
1564.8646681186     0.492607 
1580.5133147997     0.957657 
1596.3184479477      1.14103 
1612.2816324272     1.393875 
1628.4044487515      1.79034 
1644.688493239     2.226615 
1661.1353781714 4.2206827272727 
1677.7467319531      14.3011 
1694.5241992726     33.83385 
1711.4694412654       49.264 
1728.584135678     89.08025 
1745.8699770348      151.413 
1763.3286768051     148.1725 
1780.9619635732     225.7975 
1798.7715832089      268.781 
1816.759299041      355.713 
1834.9268920314      326.699 
1853.2761609517       457.84 
1871.8089225613      608.865 
1890.5270117869     843.8605 
1909.4322819047      948.722 
1928.5266047238      971.817 
1947.811870771 1662.4509090909 
1967.2899894787 1942.0405882353 
1986.9628893735 2338.9080952381 
2006.8325182673      2359.25 
2026.9008434499     3218.335 
2047.1698518844      3527.76 
2067.6415504033     4548.133 
2088.3179659073     9031.655 
2109.2011455664     10128.59 
2130.293157022      11937.1 
2151.5960885923        14000 
2173.1120494782      16349.5 
2194.843169973 17682.966666667 
2216.7916016727     22979.65 
2238.9595176894      23326.5 
2261.3491128663      21774.4 
2283.962603995 29590.566666667 
2306.8022300349      26920.8 
2329.8702523353      18677.1 
2353.1689548586 23798.066666667 
2376.7006444072      16205.6 
2400.4676508513      21662.3 
2424.4723273598      49290.6 
2448.7170506334      55946.7 
2473.2042211397 32741.133333333 
2497.9362633511 37682.804347826 
2522.9156259846 38781.088888889 
2548.1447822445    113444.85 
2573.6262300669        85832 
2599.3624923676 59833.866666667 
2625.3561172913       253655 
2651.6096784642       372793 
2678.1257752488     335147.5 
2704.9070330013 248749.66666667 
2731.9561033313     140435.6 
2759.2756643647       174199 
2786.8684210083     41346.65 
2814.7371052184 271350.66666667 
2842.8844762706 213533.06666667 
2871.3133210333 568570.33333333 
2900.0264542436       933272 
2929.026718786     821260.5 
2958.3169859739       922255 
2987.9001558336       922620 
3017.779157392      1054660 
3047.9569489659      1102370 
3078.4365184556      1257660 
3109.2208836401      1325725 
3140.3130924765      1369190 
3171.7162234013      1226800 
3203.4333856353      1216685 
3235.4677194916      1575690 
3267.8223966866      1887905 
3300.5006206534      1784570 
3333.50562686      1689610 
3366.8406831286      1479305 
3400.5090899598      1736115 
3434.5141808594      1992390 
3468.859322668      2064590 
3503.5479158947      2106360 
3538.5833950537      1846110 
3573.9692290042      1673560 
3609.7089212942      2204670 
3645.8060105072 2633106.6666667 
3682.2640706123      2788760 
3719.0867113184      2445110 
3756.2775784316      2835545 
3793.8403542159      2144960 
3831.778757758      1742060 
3870.0965453356      2934750 
3908.797510789      2231045 
3947.8854858969      1870435 
3987.3643407558      4349690 
4027.2379841634      4635420 
4067.510364005      4777880 
4108.1854676451      4957215 
4149.2673223215 4631406.6666667 
4190.7599955447      5111490 
4232.6675955002      5169670 
4274.9942714552      4125505 
4317.7442141697      5396505 
4360.9216563114      5657580 
4404.5308728746      5875600 
4448.5761816033      6398260 
4493.0619434193      7078055 
4537.9925628535      7034150 
4583.3724884821      7031135 
4629.2062133669 6999793.3333333 
4675.4982755006      6820275 
4722.2532582556      7386705 
4769.4757908381 7571816.6666667 
4817.1705487465      7373860 
4865.342254234 6970026.6666667 
4913.9956767763      7419815 
4963.1356335441 6908806.6666667 
5012.7669898795      6959620 
5062.8946597783 7099816.6666667 
5113.5236063761      6615075 
5164.6588424398      6558260 
5216.3054308642      6975680 
5268.4684851729      6886610 
5321.1531700246 7028953.3333333 
5374.3647017249      6978510 
5428.1083487421 7221996.6666667 
5482.3894322295 6975203.3333333 
5537.2133265518      7064380 
5592.5854598173      7185200 
5648.5113144155 7028803.3333333 
5704.9964275597 7242526.6666667 
5762.0463918353      7177680 
5819.6668557536 7337783.3333333 
5877.8635243112      7020410 
5936.6421595543 7155346.6666667 
5996.0085811498      7046960 
6055.9686669613      6903220 
6116.5283536309      6444390 
6177.6936371672 6708596.6666667 
6239.4705735389 6535836.6666667 
6301.8652792743 6426823.3333333 
6364.883932067      6424530 
6428.5327713877      6368685 
6492.8180991016      6345360 
6557.7462800926 6094233.3333333 
6623.3237428935      6211660 
6689.5569803225      6165435 
6756.4525501257 6051063.3333333 
6824.0170756269      5980795 
6892.2572463832      5875100 
6961.179818847      5701205 
7030.7916170355 5659673.3333333 
7101.0995332059    5487767.5 
7172.1105285379 5334266.6666667 
7243.8316338233      5319975 
7316.2699501615      5304190 
7389.4326496631      5119980 
7463.3269761598      5155980 
7537.9602459214      5112420 
7613.3398483806      5025960 
7689.4732468644    4937552.5 
7766.367979333    4920267.5 
7844.0316591264    4761937.5 
7922.4719757176    4609967.5 
8001.6966954748    4560727.5 
8081.7136624296      4455260 
8162.5307990539      4338990 
8244.1561070444    4318022.5 
8326.5976681148      4202880 
8409.863644796      4118096 
8493.9622812439      3698545 
8578.9019040564    3993752.5 
8664.6909230969      3745038 
8751.3378323279      3913835 
8838.8512106512    3843647.5 
8927.2397227577      3746630 
9016.5121199853    3705547.5 
9106.6772411851      3597900 
9197.744013597    3394767.5 
9289.721453733      3463192 
9382.6186682703      3313352 
9476.444854953      3288078 
9571.2093035025      3247915 
9666.9213965375      3187904 
9763.5906105029      3156566 
9861.226516608      3119406 
9959.838781774      3082202 
10059.437169592      2999305 
10160.031541288      2945115 
10261.631856701      2912560 
10364.248175268      2850315 
10467.89065702      2779825 
10572.56956359      2708430 
10678.295259226      2629575 
10785.078211819      2545930 
10892.928993937      2426520 
11001.858283876      2389055 
11111.876866715      2368435 
11222.995635382 2317436.6666667 
11335.225591736      2256660 
11448.577847653      2275745 
11563.06362613 2191236.6666667 
11678.694262391      2171130 
11795.481205015      2108695 
11913.436017065 2085586.6666667 
12032.570377236      2030265 
12152.896081008      2027260 
12274.425041818      1978940 
12397.169292236      1938680 
12521.140985159 1891093.3333333 
12646.35239501      1852305 
12772.81591896 1787043.3333333 
12900.54407815 1762673.3333333 
13029.549518932      1731700 
13159.845014121 1686813.3333333 
13291.443464262      1659215 
13424.357898905      1633310 
13558.601477894 1574316.6666667 
13694.187492673      1542570 
13831.129367599      1520800 
13969.440661275      1480490 
14109.135067888 1416416.6666667 
14250.226418567      1384720 
14392.728682753 1336656.6666667 
14536.65596958      1316046 
14682.022529276 1270576.6666667 
14828.842754569 1257313.3333333 
14977.131182115      1217540 
15126.902493936      1203770 
15278.171518875 1175746.6666667 
15430.953234064 1137603.3333333 
15585.262766404 1117983.3333333 
15741.115394068 1057646.6666667 
15898.526548009 1058798.5714286 
16057.511813489      1015210 
16218.086931624      1018180 
16380.26780094       961557 
16544.07047895       969196 
16709.511183739       911372 
16876.606295577       915042 
17045.372358532     877056.5 
17215.826082118       817976 
17387.984342939     803884.5 
17561.864186368       784752 
17737.482828232     760357.5 
17914.857656514       733147 
18094.006233079       691486 
18274.94629541       674344 
18457.695758364       657055 
18642.272715948       620500 
18828.695443107       603109 
19016.982397539       594277 
19207.152221514     569088.5 
19399.223743729       540365 
19593.215981166       528206 
19789.148140978       511786 
19987.039622388       499093 
20186.910018612     474647.5 
20388.779118798       464079 
20592.666909986       445262 
20798.593579086     428827.5 
21006.579514877       417254 
21216.645310025     402807.5 
21428.811763126       390856 
21643.099880757 368135.33333333 
21859.530879564     358241.5 
22078.12618836     347438.5 
22298.907450244     335794.5 
22521.896524746       323296 
22747.115489993 307019.33333333 
22974.586644893     294795.5 
23204.332511342       276013 
23436.375836456 267418.33333333 
23670.73959482     253785.5 
23907.446990769     250782.5 
24146.521460676 237194.66666667 
24387.986675283       226566 
24631.866542036 221582.33333333 
24878.185207456     215534.5 
25126.967059531 207218.66666667 
25378.236730126     200121.5 
25632.019097427       193385 
25888.339288402       188841 
26147.222681286       180285 
26408.694908098 174421.66666667 
26672.781857179     170029.5 
26939.509675751 165323.33333333 
27208.904772509 159432.66666667 
27480.993820234       152087 
27755.803758436     148579.5 
28033.361796021       144010 
28313.695413981 138674.66666667 
28596.832368121       132385 
28882.800691802 128511.33333333 
29171.62869872 123345.33333333 
29463.344985707 119168.33333333 
29757.978435564       114541 
30055.55821992 109893.33333333 
30356.113802119 106227.33333333 
30659.67494014       102415 
30966.271689541 98722.033333333 
31275.934406437 95426.433333333 
31588.693750501 92001.533333333 
31904.580688006     89066.52 
32223.626494886      85248.7 
32545.862759835      82206.4 
32871.321387434        78822 
33200.034601308        75712 
33532.034947321      73107.7 
33867.355296794      70545.2 
34206.028849762     67851.45 
34548.08913826      65616.2 
34893.570029642      63601.4 
35242.505729939     60828.05 
35594.930787238      58208.6 
35950.880095111      56013.2 
36310.388896062      53877.5 
36673.492785022     52067.65 
37040.227712872        49723 
37410.629990001        47500 
37784.736289901     46069.25 
38162.5836528      44582.9 
38544.209489328     42695.25 
38929.651584221      41200.3 
39318.948100064      39450.6 
39712.137581064     37743.55 
40109.258956875      36494.2 
40510.351546444     35248.55 
40915.455061908      34105.6 
41324.609612527     32731.35 
41737.855708653      31547.3 
42155.234265739     30545.25 
42576.786608396        29005 
43002.55447448        27288 
43432.580019225      25650.5 
43866.905819417 24266.466666667 
44305.574877612      22820.6 
44748.630626388     22197.25 
45196.116932652      20986.8 
45648.078101978      20188.1 
46104.558882998      19336.4 
46565.604471828      18878.6 
47031.260516546 18221.333333333 
47501.573121712      17525.8 
47976.588852929      17069.3 
48456.354741458 16461.533333333 
48940.918288873      15835.1 
49430.327471761      15297.5 
49924.630746479     14745.65 
50423.877053944 14217.666666667 
50928.115824483     13690.25 
51437.396982728 13305.933333333 
51951.770952555      12775.8 
52471.288662081      12433.9 
52996.001548702 11906.433333333 
53525.961564189      11533.2 
54061.221179831 11146.566666667 
54601.833391629 10707.733333333 
55147.851725545        10397 
55699.330242801     10078.84 
56256.323545229      9696.36 
56818.886780681 9327.6933333333 
57387.075648488 9000.7566666667 
57960.946404973 8661.8466666667 
58540.555869022      8320.19 
59125.961427713      8027.59 
59717.22104199 7758.4266666667 
60314.39325241 7459.6966666667 
60917.537184934 7190.9033333333 
61526.712556783      6962.28 
62141.979682351 6696.1266666667 
62763.399479174 6462.6366666667 
63391.033473966 6248.4233333333 
64024.943808706 5985.6871428571 
64665.193246793      5782.58 
65311.845179261      5595.94 
65964.963631053     5343.425 
66624.613267364      5164.88 
67290.859400038      4984.68 
67963.767994038     4769.575 
68643.405673978      4609.85 
69329.839730718     4459.445 
70023.138128025     4264.985 
70723.369509305     4085.765 
71430.603204399      3952.82 
72144.909236443      3825.56 
72866.358328807         3667 
73595.021912095     3512.985 
74330.972131216     3357.495 
75074.281852528     3231.805 
75825.024671053      3134.75 
76583.274917764     3039.025 
77349.107666942      2919.97 
78122.598743611     2805.485 
78903.824731047       2695.4 
79692.862978358     2589.725 
80489.791608141     2490.615 
81294.689524223      2394.18 
82107.636419465      2306.97 
82928.712783659       2219.5 
83757.999911496     2138.245 
84595.579910611 2042.1333333333 
85441.535709717      1949.89 
86295.951066814      1880.86 
87158.910577482      1813.08 
88030.499683257      1748.45 
88910.80468009     1687.985 
89799.912726891      1615.57 
90697.91185416     1545.795 
91604.890972701     1495.885 
92520.939882428      1433.62 
93446.149281253      1374.28 
94380.610774065     1328.965 
95324.416881806 1275.1166666667 
96277.661050624      1224.36 
97240.43766113 1174.4366666667 
98212.842037741     1129.615 
99194.970458119     1093.495 
100186.9201627      1068.24 
199060.83304441      68.7892 
399467.9878358      4.28296 
594753.39981818     0.838226 
793700.71765891      0.26297 
997811.18987739     0.106901 
1193529.3359837     0.051209 
1399507.0114645    0.0274744 
