#  WAVELENGTH	        FLUX	
#  (ANGSTROM)	(ERG/CM2/S/A)	
############	############	
528.98948905211  9.01887E-25 
539.62217778206  3.50865E-24 
545.01839955988  1.31102E-23 
555.97326939103  4.63428E-23 
567.14833210579  1.56281E-22 
578.54801358112  4.98618E-22 
584.33349371693  1.55844E-21 
596.07859694064   4.6276E-21 
608.05977673914  1.32458E-20 
614.14037450653  3.65147E-20 
626.48459603412   9.7291E-20 
639.0769364144  2.50954E-19 
645.46770577855  6.27478E-19 
651.92238283633  1.27829E-18 
658.44160666469  2.34263E-18 
671.67628295866   5.4537E-18 
678.39304578824  1.23715E-17 
692.02874600859  2.73283E-17 
698.94903346867  5.86055E-17 
712.99790904139  1.33539E-16 
720.12788813181  2.74552E-16 
734.60245868325  5.15709E-16 
741.94848327009  1.01862E-15 
749.36796810279  1.97385E-15 
764.43026426165  3.75973E-15 
772.07456690427  7.01682E-15 
779.79531257331  1.29014E-14 
787.59326569905   2.3044E-14 
803.4238903396  4.11579E-14 
811.45812924299  7.23768E-14 
819.57271053542  1.24849E-13 
827.76843764078    2.123E-13 
844.40658323736  3.56046E-13 
852.85064906973  5.89503E-13 
861.37915556043  9.62789E-13 
869.99294711603   1.5486E-12 
878.69287658719  2.47647E-12 
887.47980535306  3.90495E-12 
896.3546034066  6.08315E-12 
914.37133093507   7.28331E-9 
923.51504424442   2.66689E-8 
932.75019468686   3.90156E-8 
942.07769663373   6.18697E-8 
951.49847360007   9.60637E-8 
961.01345833607   1.48884E-7 
970.62359291943   2.15253E-7 
980.32982884862   3.08316E-7 
990.13312713711   4.39394E-7 
1000.0344584085   6.80112E-7 
1010.0348029926   9.77455E-7 
1020.1351510225   1.35707E-6 
1030.3365025327   1.99903E-6 
1040.639867558   2.82441E-6 
1051.0462662336    3.8735E-6 
1061.556728896   5.32731E-6 
1072.1722961849   7.49172E-6 
1082.8940191468   1.02399E-5 
1093.7229593382   1.33757E-5 
1104.6601889316   2.52988E-5 
1115.7067908209   4.17623E-5 
1126.8638587291   5.85788E-5 
1138.1324973164    7.8405E-5 
1149.5138222896   0.00010049 
1161.0089605125  0.000137208 
1172.6190501176  0.000178713 
1184.3452406188  0.000239589 
1196.188693025  0.000328414 
1208.1505799552  0.000274772 
1220.2320857548  0.000518239 
1232.4344066123  0.000718695 
1244.7587506785 0.0010073745 
1257.2063381852   0.00134992 
1269.7784015671   0.00168752 
1282.4761855828  0.002251225 
1295.3009474386   0.00289191 
1308.253956913    0.0037117 
1321.3364964821   0.00438482 
1334.5498614469  0.005958105 
1347.8953600614   0.00807599 
1361.374313662   0.00962679 
1374.9880567986   0.01250875 
1388.7379373666    0.0163608 
1402.6253167403    0.0221311 
1416.6515699077    0.0278546 
1430.8180856068 0.037211252941176 
1445.1262664628    0.0452858 
1459.5775291275    0.0596773 
1474.1733044187   0.07099955 
1488.9150374629     0.098483 
1503.8041878376 0.11981681818182 
1518.8422297159     0.157514 
1534.0306520131      0.41303 
1549.3709585332     0.716216 
1564.8646681186     1.114996 
1580.5133147997     2.034945 
1596.3184479477      2.42781 
1612.2816324272      2.90558 
1628.4044487515      3.82421 
1644.688493239      4.73339 
1661.1353781714 8.2584563636364 
1677.7467319531      24.1293 
1694.5241992726     50.00145 
1711.4694412654     69.21755 
1728.584135678     119.6759 
1745.8699770348      191.568 
1763.3286768051     186.5325 
1780.9619635732     283.1535 
1798.7715832089     345.5335 
1816.759299041      448.136 
1834.9268920314     411.5145 
1853.2761609517      557.104 
1871.8089225613      718.764 
1890.5270117869     986.6725 
1909.4322819047      1110.97 
1928.5266047238     1093.622 
1947.811870771 1876.5336363636 
1967.2899894787      2185.58 
1986.9628893735 2491.7752380952 
2006.8325182673     2528.275 
2026.9008434499      3385.02 
2047.1698518844     3821.425 
2067.6415504033    4668.7835 
2088.3179659073     9515.465 
2109.2011455664      11885.6 
2130.293157022     13630.65 
2151.5960885923     14932.25 
2173.1120494782      16871.1 
2194.843169973 18569.166666667 
2216.7916016727     23792.85 
2238.9595176894     25344.35 
2261.3491128663      23170.2 
2283.962603995 30407.466666667 
2306.8022300349      30303.9 
2329.8702523353     25959.35 
2353.1689548586 30806.233333333 
2376.7006444072      24561.6 
2400.4676508513     29832.05 
2424.4723273598 52346.266666667 
2448.7170506334     59530.05 
2473.2042211397 35465.366666667 
2497.9362633511 41432.513043478 
2522.9156259846 41425.007407407 
2548.1447822445       122024 
2573.6262300669       126224 
2599.3624923676 102034.56666667 
2625.3561172913       351601 
2651.6096784642       482506 
2678.1257752488       426058 
2704.9070330013 324472.33333333 
2731.9561033313       204664 
2759.2756643647 266843.33333333 
2786.8684210083     72931.25 
2814.7371052184 386088.66666667 
2842.8844762706     226589.1 
2871.3133210333 700277.33333333 
2900.0264542436      1180630 
2929.026718786      1047655 
2958.3169859739      1098430 
2987.9001558336      1066810 
3017.779157392      1240630 
3047.9569489659      1334795 
3078.4365184556      1450210 
3109.2208836401      1604505 
3140.3130924765      1661570 
3171.7162234013      1485880 
3203.4333856353      1461705 
3235.4677194916      1931070 
3267.8223966866      2305750 
3300.5006206534      2131895 
3333.50562686      2052120 
3366.8406831286      1693475 
3400.5090899598      1923795 
3434.5141808594      2180620 
3468.859322668      2346370 
3503.5479158947      2395845 
3538.5833950537      2039450 
3573.9692290042      1815710 
3609.7089212942      2470098 
3645.8060105072      3039910 
3682.2640706123      3063555 
3719.0867113184      2340320 
3756.2775784316      2880175 
3793.8403542159      2035760 
3831.778757758      1705885 
3870.0965453356      2959650 
3908.797510789      2581050 
3947.8854858969      2387830 
3987.3643407558      4688930 
4027.2379841634      4739390 
4067.510364005      4853535 
4108.1854676451      5009185 
4149.2673223215 4630236.6666667 
4190.7599955447      5072995 
4232.6675955002      5102500 
4274.9942714552      4046265 
4317.7442141697      5377390 
4360.9216563114      5596915 
4404.5308728746      5876650 
4448.5761816033 6394283.3333333 
4493.0619434193      7079945 
4537.9925628535      7088110 
4583.3724884821      7044300 
4629.2062133669 7003183.3333333 
4675.4982755006      6844335 
4722.2532582556      7359875 
4769.4757908381 7526726.6666667 
4817.1705487465      7345575 
4865.342254234 6901303.3333333 
4913.9956767763      7320030 
4963.1356335441 6850686.6666667 
5012.7669898795      6883865 
5062.8946597783 7021116.6666667 
5113.5236063761      6570580 
5164.6588424398 6290456.6666667 
5216.3054308642      6931710 
5268.4684851729      6860680 
5321.1531700246      6949650 
5374.3647017249      6901495 
5428.1083487421 7151316.6666667 
5482.3894322295      6933700 
5537.2133265518 6990566.6666667 
5592.5854598173      7105170 
5648.5113144155 6972883.3333333 
5704.9964275597 7174303.3333333 
5762.0463918353 7109996.6666667 
5819.6668557536 7259093.3333333 
5877.8635243112 6894186.6666667 
5936.6421595543 7079196.6666667 
5996.0085811498      6977050 
6055.9686669613      6842080 
6116.5283536309 6381033.3333333 
6177.6936371672      6641670 
6239.4705735389      6485560 
6301.8652792743 6365176.6666667 
6364.883932067 6362843.3333333 
6428.5327713877    6293002.5 
6492.8180991016 6276636.6666667 
6557.7462800926 6053806.6666667 
6623.3237428935 6144676.6666667 
6689.5569803225      6100080 
6756.4525501257      5983700 
6824.0170756269      5913820 
6892.2572463832 5809976.6666667 
6961.179818847    5642452.5 
7030.7916170355 5598606.6666667 
7101.0995332059      5435820 
7172.1105285379 5289376.6666667 
7243.8316338233      5277550 
7316.2699501615 5254023.3333333 
7389.4326496631      5080995 
7463.3269761598    5115227.5 
7537.9602459214      5053585 
7613.3398483806 4972926.6666667 
7689.4732468644      4890485 
7766.367979333      4875225 
7844.0316591264    4728282.5 
7922.4719757176      4567915 
8001.6966954748    4522127.5 
8081.7136624296    4413462.5 
8162.5307990539    4299557.5 
8244.1561070444      4283240 
8326.5976681148    4166192.5 
8409.863644796      4103242 
8493.9622812439    3766422.5 
8578.9019040564    3975427.5 
8664.6909230969      3746316 
8751.3378323279    3855982.5 
8838.8512106512      3804890 
8927.2397227577      3703060 
9016.5121199853      3666590 
9106.6772411851      3553530 
9197.744013597    3363582.5 
9289.721453733      3418162 
9382.6186682703      3273518 
9476.444854953      3249182 
9571.2093035025      3211205 
9666.9213965375      3154926 
9763.5906105029      3118106 
9861.226516608      3084974 
9959.838781774 3047945.3333333 
10059.437169592      2970895 
10160.031541288      2911860 
10261.631856701      2881105 
10364.248175268      2820220 
10467.89065702      2759430 
10572.56956359 2681706.6666667 
10678.295259226      2605060 
10785.078211819      2515850 
10892.928993937      2406070 
11001.858283876      2366135 
11111.876866715      2348325 
11222.995635382 2299193.3333333 
11335.225591736      2239910 
11448.577847653      2255615 
11563.06362613 2178053.3333333 
11678.694262391      2156905 
11795.481205015      2094440 
11913.436017065      2065660 
12032.570377236      2014815 
12152.896081008      2017035 
12274.425041818 1967873.3333333 
12397.169292236      1927515 
12521.140985159 1884923.3333333 
12646.35239501      1843280 
12772.81591896      1778670 
12900.54407815      1757020 
13029.549518932      1725275 
13159.845014121      1682570 
13291.443464262      1655755 
13424.357898905 1632056.6666667 
13558.601477894 1574323.3333333 
13694.187492673 1546573.3333333 
13831.129367599      1523455 
13969.440661275 1483253.3333333 
14109.135067888 1419226.6666667 
14250.226418567 1387116.6666667 
14392.728682753 1343016.6666667 
14536.65596958 1321689.3333333 
14682.022529276      1276830 
14828.842754569 1261843.3333333 
14977.131182115      1220830 
15126.902493936 1213296.6666667 
15278.171518875      1188760 
15430.953234064 1150513.3333333 
15585.262766404      1130200 
15741.115394068 1065766.6666667 
15898.526548009 1063592.8571429 
16057.511813489      1028130 
16218.086931624      1023095 
16380.26780094       973795 
16544.07047895     976118.5 
16709.511183739     917378.5 
16876.606295577       921598 
17045.372358532       882439 
17215.826082118       823531 
17387.984342939     809562.5 
17561.864186368       791173 
17737.482828232     766395.5 
17914.857656514       738476 
18094.006233079       695511 
18274.94629541     677222.5 
18457.695758364       661096 
18642.272715948       622561 
18828.695443107     605958.5 
19016.982397539       596918 
19207.152221514     570966.5 
19399.223743729       542076 
19593.215981166       530066 
19789.148140978     513986.5 
19987.039622388       501520 
20186.910018612     476632.5 
20388.779118798     465868.5 
20592.666909986     447176.5 
20798.593579086     430149.5 
21006.579514877     419267.5 
21216.645310025       404555 
21428.811763126       392409 
21643.099880757 368992.33333333 
21859.530879564     359445.5 
22078.12618836     349033.5 
22298.907450244     336983.5 
22521.896524746       324834 
22747.115489993 308627.33333333 
22974.586644893       296462 
23204.332511342       278275 
23436.375836456 269500.33333333 
23670.73959482     255114.5 
23907.446990769       252690 
24146.521460676 238956.66666667 
24387.986675283       228065 
24631.866542036       222780 
24878.185207456       216824 
25126.967059531 208612.33333333 
25378.236730126     200824.5 
25632.019097427 194436.33333333 
25888.339288402     189506.5 
26147.222681286 181081.33333333 
26408.694908098 174745.66666667 
26672.781857179     171023.5 
26939.509675751       165677 
27208.904772509 159704.66666667 
27480.993820234 152593.33333333 
27755.803758436     148726.5 
28033.361796021       144184 
28313.695413981 138797.33333333 
28596.832368121       132736 
28882.800691802       128648 
29171.62869872 123365.66666667 
29463.344985707 119235.33333333 
29757.978435564 114583.33333333 
30055.55821992       110066 
30356.113802119       106254 
30659.67494014 102467.66666667 
30966.271689541 98777.733333333 
31275.934406437        95470 
31588.693750501      91993.9 
31904.580688006     89085.66 
32223.626494886     85221.85 
32545.862759835      82199.5 
32871.321387434      78910.6 
33200.034601308     75715.45 
33532.034947321      73150.9 
33867.355296794      70543.6 
34206.028849762      67854.6 
34548.08913826      65597.6 
34893.570029642     63581.45 
35242.505729939      60812.9 
35594.930787238     58198.25 
35950.880095111     56001.95 
36310.388896062      53772.9 
36673.492785022      52017.6 
37040.227712872      49685.8 
37410.629990001     47482.95 
37784.736289901        46034 
38162.5836528     44571.35 
38544.209489328     42655.35 
38929.651584221     41210.35 
39318.948100064     39406.05 
39712.137581064     37725.75 
40109.258956875     36495.55 
40510.351546444     35206.55 
40915.455061908     34063.45 
41324.609612527     32723.55 
41737.855708653     31500.55 
42155.234265739     30512.85 
42576.786608396     29016.15 
43002.55447448     27335.55 
43432.580019225      25743.6 
43866.905819417      24363.8 
44305.574877612      22968.2 
44748.630626388      22332.1 
45196.116932652     21154.15 
45648.078101978 20358.533333333 
46104.558882998     19509.65 
46565.604471828      19041.2 
47031.260516546      18369.6 
47501.573121712      17662.7 
47976.588852929      17195.8 
48456.354741458 16571.166666667 
48940.918288873      15944.1 
49430.327471761 15393.533333333 
49924.630746479      14836.7 
50423.877053944 14303.766666667 
50928.115824483      13773.6 
51437.396982728 13375.066666667 
51951.770952555      12845.1 
52471.288662081 12491.266666667 
52996.001548702 11961.033333333 
53525.961564189     11572.45 
54061.221179831 11189.133333333 
54601.833391629 10747.533333333 
55147.851725545      10431.8 
55699.330242801     10102.35 
56256.323545229      9721.21 
56818.886780681 9348.8466666667 
57387.075648488      9016.46 
57960.946404973 8675.1966666667 
58540.555869022      8332.17 
59125.961427713 8040.3766666667 
59717.22104199 7762.0166666667 
60314.39325241      7465.24 
60917.537184934 7194.1766666667 
61526.712556783      6962.22 
62141.979682351 6693.8366666667 
62763.399479174 6463.5333333333 
63391.033473966 6246.7866666667 
64024.943808706 5982.0571428571 
64665.193246793      5779.19 
65311.845179261      5592.72 
65964.963631053      5339.45 
66624.613267364       5158.5 
67290.859400038      4980.59 
67963.767994038     4764.395 
68643.405673978       4605.5 
69329.839730718     4454.465 
70023.138128025      4259.27 
70723.369509305      4080.19 
71430.603204399      3947.79 
72144.909236443       3820.9 
72866.358328807      3661.83 
73595.021912095     3508.125 
74330.972131216      3355.61 
75074.281852528      3227.34 
75825.024671053      3130.28 
76583.274917764      3033.87 
77349.107666942      2915.56 
78122.598743611       2801.1 
78903.824731047     2691.165 
79692.862978358     2585.605 
80489.791608141       2486.4 
81294.689524223      2390.16 
82107.636419465     2303.395 
82928.712783659       2215.8 
83757.999911496      2134.99 
84595.579910611 2038.9133333333 
85441.535709717      1946.89 
86295.951066814     1878.135 
87158.910577482     1810.795 
88030.499683257     1745.365 
88910.80468009      1685.31 
89799.912726891 1612.9433333333 
90697.91185416      1543.51 
91604.890972701     1493.505 
92520.939882428 1431.3266666667 
93446.149281253     1372.295 
94380.610774065      1326.89 
95324.416881806       1273.2 
96277.661050624     1222.385 
97240.43766113 1172.5033333333 
98212.842037741     1127.855 
99194.970458119      1091.88 
100186.9201627       1066.7 
199060.83304441      68.7127 
399467.9878358      4.28296 
594753.39981818     0.838927 
793700.71765891     0.263323 
997811.18987739     0.107082 
1193529.3359837    0.0513059 
1399507.0114645    0.0275321 
